(R) Hippocampal formation slice 1 time (s),(R) Hippocampal formation slice 1 amplitude,(R) Hypothalamus slice 1 time (s),(R) Hypothalamus slice 1 amplitude,(R) IsocortexUD slice 1 time (s),(R) IsocortexUD slice 1 amplitude,(R) Pallidum slice 1 time (s),(R) Pallidum slice 1 amplitude,(R) Striatum slice 1 time (s),(R) Striatum slice 1 amplitude,(R) Thalamus slice 1 time (s),(R) Thalamus slice 1 amplitude
0.4,0.154860123222883,0.4,0.148690684983353,0.4,0.0811285796122882,0.4,0.0183093981637618,0.4,0.109337792758532,0.4,0.170001037847376
1.4,0.153771494698415,1.4,0.149776719889999,1.4,0.0794825778611196,1.4,0.0184641074617196,1.4,0.108976398644086,1.4,0.169623304624407
2.4,0.152820374734229,2.4,0.150712197179365,2.4,0.0780565040836919,2.4,0.0186149501113181,2.4,0.108642884976148,2.4,0.16929600723089
3.4,0.152114446296132,3.4,0.151435539907485,3.4,0.0769608198913526,3.4,0.0187474221280248,3.4,0.108365419147007,3.4,0.169052973278321
4.4,0.151728412300084,4.4,0.151915229046966,4.4,0.0762509152610429,4.4,0.0188508239974758,4.4,0.108160698843701,4.4,0.168918526125175
5.4,0.151707901899721,5.4,0.152153269133435,5.4,0.0759280057189824,5.4,0.0189200582958773,5.4,0.108032417011397,5.4,0.168907971787205
6.4,0.152047579466584,6.4,0.152180956457357,6.4,0.0759407082059264,6.4,0.0189552189232273,6.4,0.10797204169182,6.4,0.169017866558183
7.4,0.152722378921622,7.4,0.152053906782669,7.4,0.0762085104138973,7.4,0.0189616310594176,7.4,0.107963913372159,7.4,0.169236793531613
8.4,0.153680182112063,8.4,0.151836458400659,8.4,0.0766371923252073,8.4,0.0189479302103494,8.4,0.107990048885457,8.4,0.169547275583328
9.4,0.154860178997365,9.4,0.151596012044622,9.4,0.07713818773937,9.4,0.0189245223211829,9.4,0.108035182832669,9.4,0.169923403015666
10.4,0.156200218280582,10.4,0.151391331507688,10.4,0.0776435643485926,10.4,0.018901303849688,10.4,0.108091168055651,10.4,0.170340875724589
11.4,0.157636649668078,11.4,0.151266722071845,11.4,0.0781110216697077,11.4,0.0188867194259639,11.4,0.108156437610667,11.4,0.170779335241879
12.4,0.159118294953488,12.4,0.151249312237253,12.4,0.0785231338179007,12.4,0.018885581272036,12.4,0.108235328496009,12.4,0.171221595835031
13.4,0.160585072666701,13.4,0.151348382727773,13.4,0.0788819883851721,13.4,0.0189001642856256,13.4,0.108333433864739,13.4,0.171656699763618
14.4,0.161981517111741,14.4,0.151558676687628,14.4,0.0791988662481769,14.4,0.0189308781839518,14.4,0.10845434706298,14.4,0.172077155329228
15.4,0.163243856419987,15.4,0.151861070099272,15.4,0.0794831424541817,15.4,0.018975788999657,15.4,0.108593581771908,15.4,0.172473016666657
16.4,0.164310678795239,16.4,0.152228681208164,16.4,0.0797400961897504,16.4,0.0190333211726349,16.4,0.108741609590642,16.4,0.172838389311861
17.4,0.165122433758396,17.4,0.152628960654772,17.4,0.0799646210863523,17.4,0.0191003392595002,17.4,0.108881330406168,17.4,0.173164442867394
18.4,0.16562709796743,18.4,0.153025827250466,18.4,0.0801435676024524,18.4,0.0191745883759198,18.4,0.108995014737125,18.4,0.173443316565671
19.4,0.165794779670791,19.4,0.153385836779572,19.4,0.0802623283687083,19.4,0.0192537675463905,19.4,0.109067112594883,19.4,0.173667561307137
20.4,0.165617997213559,20.4,0.153677197057337,20.4,0.0803065533509768,20.4,0.0193361238905686,20.4,0.109090569251028,20.4,0.173832153407112
21.4,0.165124968154003,21.4,0.153879226711377,21.4,0.0802727703962442,21.4,0.0194187501390867,21.4,0.109067172233919,21.4,0.173936500340241
22.4,0.164377568724478,22.4,0.153980317280937,22.4,0.0801667702315961,22.4,0.0194996640764303,22.4,0.109011920586505,22.4,0.173985752440594
23.4,0.163460605015793,23.4,0.153981626440157,23.4,0.080004691700351,23.4,0.0195755081682228,23.4,0.108946417787356,23.4,0.173988304138392
24.4,0.162497108467117,24.4,0.153898478940015,24.4,0.0798157843554881,24.4,0.0196440749991712,24.4,0.108896014083865,24.4,0.173960701209096
25.4,0.161607168097761,25.4,0.153755532455984,25.4,0.0796300976875951,25.4,0.0197026224837419,25.4,0.108881751232133,25.4,0.173919681329166
26.4,0.160918181339737,26.4,0.153584778703537,26.4,0.0794787583105784,26.4,0.0197494233682245,26.4,0.108917978971153,26.4,0.173884723285686
27.4,0.160533391557673,27.4,0.153417111304269,27.4,0.0793860515769385,27.4,0.0197830710336164,27.4,0.109005192570848,27.4,0.173872420012615
28.4,0.160523735626559,28.4,0.153277852420626,28.4,0.0793653305754857,28.4,0.0198030707919017,28.4,0.109132071201274,28.4,0.17389418632711
29.4,0.160911602013096,29.4,0.153179278087514,29.4,0.0794204341899089,29.4,0.019809465201905,29.4,0.109277569400486,29.4,0.17395591347267
30.4,0.161663415045421,30.4,0.153122254891868,30.4,0.0795351912155875,30.4,0.0198034926222223,30.4,0.109414831870923,30.4,0.174055043263945
31.4,0.16269483305639,31.4,0.153094760430339,31.4,0.0796901959307943,31.4,0.0197868589284206,31.4,0.109519816743172,31.4,0.174182577223302
32.4,0.163877895611201,32.4,0.153076830028938,32.4,0.0798566989753045,32.4,0.0197612148068275,32.4,0.109573331598357,32.4,0.174325257042406
33.4,0.165063913413354,33.4,0.153048502694314,33.4,0.0800098324684961,33.4,0.0197292748352235,33.4,0.109569233795945,33.4,0.174467991505449
34.4,0.166094774903624,34.4,0.152993658727369,34.4,0.0801240679078045,34.4,0.0196935951828043,34.4,0.109512838089168,34.4,0.174593609435203
35.4,0.166850687863498,35.4,0.152911845834288,35.4,0.0801876117696709,35.4,0.0196573129083599,35.4,0.109421655197339,35.4,0.174692912336525
36.4,0.167243888861637,36.4,0.152810405461544,36.4,0.080197676364421,36.4,0.0196226927761994,36.4,0.109318485816058,36.4,0.174759321051174
37.4,0.167252135181376,37.4,0.152711341042428,37.4,0.0801654851691082,37.4,0.0195918906500346,37.4,0.109229598401742,37.4,0.174793012563679
38.4,0.166910521894849,38.4,0.152640478616078,38.4,0.080108072980763,38.4,0.0195662147013577,38.4,0.109176911430051,38.4,0.17479646773356
39.4,0.166305763775353,39.4,0.152623156002538,39.4,0.08004836175068,39.4,0.019546185687789,39.4,0.109174557126262,39.4,0.174776647401022
40.4,0.165563657742155,40.4,0.152676491458303,40.4,0.0800100907958872,40.4,0.0195323580835498,40.4,0.109225286414532,40.4,0.174744733546423
41.4,0.164806918752636,41.4,0.152801491727145,41.4,0.0800089069584446,41.4,0.0195237300299662,41.4,0.109321142905805,41.4,0.174707521189199
42.4,0.16415241375865,42.4,0.152984722765139,42.4,0.0800551609684628,42.4,0.0195200641420628,42.4,0.109445553305413,42.4,0.174673983312156
43.4,0.163667603770816,43.4,0.153198377143977,43.4,0.0801468344876654,43.4,0.0195212429994012,43.4,0.109575993607744,43.4,0.174646600179706
44.4,0.163373459387163,44.4,0.153407640446412,44.4,0.0802759873402675,44.4,0.0195275688833136,44.4,0.109689155954103,44.4,0.174628923560786
45.4,0.163249432984318,45.4,0.153578383676238,45.4,0.0804277366717892,45.4,0.019540211968373,45.4,0.109765597019435,45.4,0.174620867840064
46.4,0.163240182200521,46.4,0.153686558550822,46.4,0.0805877899853675,46.4,0.0195610129861192,46.4,0.109792620446044,46.4,0.174624863223175
47.4,0.163273977445885,47.4,0.153720980043303,47.4,0.0807412616055473,47.4,0.0195919699117952,47.4,0.109766722373398,47.4,0.174640211249653
48.4,0.16330279094357,48.4,0.153691940301437,48.4,0.0808804579776646,48.4,0.0196343948370782,48.4,0.109694542923743,48.4,0.174671035199807
49.4,0.163291867877004,49.4,0.153624212922634,49.4,0.0810014333745757,49.4,0.0196885291278753,49.4,0.109589049819623,49.4,0.174718816307202
50.4,0.163264365239237,50.4,0.153555115913968,50.4,0.0811081436924679,50.4,0.0197533885924198,50.4,0.1094688609381,50.4,0.174790211954782
51.4,0.163264036125028,51.4,0.153522681271587,51.4,0.0812047918862329,51.4,0.0198252698008989,51.4,0.109355373694957,51.4,0.174888348540395
52.4,0.163370152046269,52.4,0.153557731373461,52.4,0.0812990990957747,52.4,0.0198991407622533,52.4,0.109268475622332,52.4,0.175018924474215
53.4,0.163666035376317,53.4,0.153680822529585,53.4,0.0813947422145311,53.4,0.0199684279016355,53.4,0.109223834453925,53.4,0.175185182416719
54.4,0.164199880961969,54.4,0.153893000827372,54.4,0.0814923660350588,54.4,0.0200258034301974,54.4,0.109230173886499,54.4,0.175386637648283
55.4,0.164990037268962,55.4,0.154176479919054,55.4,0.0815913586352767,55.4,0.0200645671240947,55.4,0.109288722415637,55.4,0.175621100417264
56.4,0.166001412656462,56.4,0.154501563534064,56.4,0.0816855832513785,56.4,0.0200792711902502,56.4,0.109393584385898,56.4,0.175879804775685
57.4,0.167150141275371,57.4,0.154831547196993,57.4,0.0817718481374465,57.4,0.0200666697582798,57.4,0.109531369158053,57.4,0.176149565993068
58.4,0.168315246078344,58.4,0.155127841944426,58.4,0.0818438432073379,58.4,0.0200265932886213,58.4,0.109682909516706,58.4,0.17640819010519
59.4,0.169371194228193,59.4,0.155360213178656,59.4,0.0819006256776688,59.4,0.0199620874036291,59.4,0.109826759368307,59.4,0.176633514038053
60.4,0.170210550218702,60.4,0.155509294506893,60.4,0.0819411274732151,60.4,0.0198800790319527,60.4,0.10994203400865,60.4,0.176805922776403
61.4,0.170764080175847,61.4,0.155567915787448,61.4,0.081968191095872,61.4,0.0197892184199322,61.4,0.110009888149806,61.4,0.176905910307319
62.4,0.171012765431483,62.4,0.155539946856536,62.4,0.0819828689761699,62.4,0.0196996845965108,62.4,0.110019374111788,62.4,0.176922153611128
63.4,0.170998068791753,63.4,0.155437876808233,63.4,0.0819884086568657,63.4,0.0196221376809866,63.4,0.109965626492012,63.4,0.176854115367633
64.4,0.170787244935256,64.4,0.155276243025738,64.4,0.0819842194159236,64.4,0.019565308301244,64.4,0.109853086480268,64.4,0.176711449086563
65.4,0.17048141212176,65.4,0.15507186189251,65.4,0.0819686425272502,65.4,0.0195347040767708,65.4,0.109695655262222,65.4,0.176514439764034
66.4,0.170156907673673,66.4,0.154837680465842,66.4,0.0819364169986371,66.4,0.0195315049270041,66.4,0.109512845727619,66.4,0.176288232540143
67.4,0.169871090149331,67.4,0.154586979615956,67.4,0.0818820609659655,67.4,0.0195532144002601,67.4,0.109329409478033,67.4,0.176060526127647
68.4,0.169635727391767,68.4,0.15433018163683,68.4,0.0817972371888563,68.4,0.0195929196277693,68.4,0.109170864380611,68.4,0.17585218646122
69.4,0.169414773027278,69.4,0.154079548657907,69.4,0.0816782251274351,69.4,0.0196426646947184,69.4,0.109059107007022,69.4,0.175677373212828
70.4,0.16915921041094,70.4,0.153848118972653,70.4,0.0815227468232179,70.4,0.0196928156602146,70.4,0.109009320700726,70.4,0.175537983780948
71.4,0.168803971692439,71.4,0.153650250494274,71.4,0.0813343141692215,71.4,0.0197347646019793,71.4,0.109028372762874,71.4,0.175429309943698
72.4,0.168317673987797,72.4,0.153503338581697,72.4,0.0811238955490903,72.4,0.0197647142343066,72.4,0.109113898482292,72.4,0.175341925130333
73.4,0.16769999668464,73.4,0.153420785256577,73.4,0.0809069267759529,73.4,0.0197809208750969,73.4,0.109253926599281,73.4,0.175263460752375
74.4,0.16700654894793,74.4,0.153412862066586,74.4,0.0807069968816919,74.4,0.0197872639684178,74.4,0.109430447005146,74.4,0.175186880994277
75.4,0.166342612903204,75.4,0.153481524651286,75.4,0.0805496862229019,75.4,0.0197899553463195,75.4,0.109622322007452,75.4,0.175112977464902
76.4,0.165837601150952,76.4,0.153619828673541,76.4,0.0804613337717476,76.4,0.0197966370021866,76.4,0.109809371960452,76.4,0.175050730306395
77.4,0.165619275512082,77.4,0.153811684830703,77.4,0.0804623792071202,77.4,0.0198140236631928,77.4,0.109974394721257,77.4,0.175016351209127
78.4,0.16578109533135,78.4,0.1540319079822,78.4,0.0805660347598019,78.4,0.0198464711764556,78.4,0.11010834795637,78.4,0.17502934968563
79.4,0.166360925993815,79.4,0.154254728350385,79.4,0.0807724629582806,79.4,0.0198932984260123,79.4,0.110206282180693,79.4,0.175108439461351
80.4,0.167316878901689,80.4,0.154454955909885,80.4,0.0810684985556347,80.4,0.0199502195045474,80.4,0.110273084588073,80.4,0.175265534744071
81.4,0.168538445253433,81.4,0.154609939747658,81.4,0.0814258398423476,81.4,0.0200078958620659,81.4,0.110316713048434,81.4,0.175499903133153
82.4,0.169864071995492,82.4,0.154707721835404,82.4,0.0818072523415434,82.4,0.0200557948418039,82.4,0.11034761674353,82.4,0.17580494389747
83.4,0.171102609505235,83.4,0.154743265623833,83.4,0.0821686525753166,83.4,0.0200829921329303,83.4,0.110373993240907,83.4,0.17616296361961
84.4,0.172087544036655,84.4,0.15472221847333,84.4,0.0824701578695738,84.4,0.0200819037949504,84.4,0.110401880816546,84.4,0.176553005180025
85.4,0.172686489678583,85.4,0.154656737525865,85.4,0.0826797656719214,85.4,0.0200487815742025,85.4,0.110431958968143,85.4,0.176949513731633
86.4,0.172849814463745,86.4,0.154564686887359,86.4,0.0827793638542428,86.4,0.019985425511151,86.4,0.110460794569444,86.4,0.17733010971953
87.4,0.172600371349858,87.4,0.154465921937147,87.4,0.082773505237524,87.4,0.0198989446681366,87.4,0.110482923136836,87.4,0.177677706179278
88.4,0.172024871024957,88.4,0.154378655996272,88.4,0.0826787898558095,88.4,0.0198002303245854,88.4,0.110491094103107,88.4,0.177976750176072
89.4,0.171270150392478,89.4,0.154320451383625,89.4,0.0825297529303727,89.4,0.0197017735636939,89.4,0.110481075651288,89.4,0.178218077576774
90.4,0.170493777001639,90.4,0.154301870138388,90.4,0.0823656498421945,90.4,0.0196156311721332,90.4,0.110451756036219,90.4,0.178393307800262
91.4,0.169855904078154,91.4,0.154330842530864,91.4,0.082226781709044,91.4,0.0195514198276111,91.4,0.110406551614161,91.4,0.178498948095837
92.4,0.169460428637561,92.4,0.154405159339931,92.4,0.0821434588218513,92.4,0.0195142847872722,92.4,0.110351806254201,92.4,0.178529712083337
93.4,0.169378345402497,93.4,0.154518517003594,93.4,0.08213367764518,93.4,0.0195059959397803,93.4,0.110297752449957,93.4,0.178486356771171
94.4,0.169609605161052,94.4,0.154655553887038,94.4,0.0821963036450995,94.4,0.0195240552361209,94.4,0.110253882478197,94.4,0.178370381720895
95.4,0.170116704287416,95.4,0.154798870920447,95.4,0.0823181873615343,95.4,0.0195635673241356,95.4,0.110227552617447,95.4,0.178192138034008
96.4,0.170816122442931,96.4,0.154925022664909,96.4,0.0824719129385547,96.4,0.019617752953545,96.4,0.110220686351591,96.4,0.177966135193042
97.4,0.171613491598468,97.4,0.15501354592284,97.4,0.0826277355980788,97.4,0.0196796384661573,97.4,0.110231513929948,97.4,0.177715030407874
98.4,0.172408436564984,98.4,0.155046570224323,98.4,0.0827560116584146,98.4,0.0197424615452032,98.4,0.110251585259852,98.4,0.177463973205319
99.4,0.173108441190257,99.4,0.155014128613359,99.4,0.0828348514266421,99.4,0.0197999699424289,99.4,0.110270601126806,99.4,0.177240528933419
100.4,0.173636876198156,100.4,0.154914980555624,100.4,0.0828540927574578,100.4,0.0198469455835853,100.4,0.110277974674795,100.4,0.177066160601228
101.4,0.173943453538768,101.4,0.154760033146404,101.4,0.0828157110846674,101.4,0.0198788732013629,101.4,0.110265388154893,101.4,0.17695539711692
102.4,0.173982160660736,102.4,0.154567800057007,102.4,0.0827306325631335,102.4,0.0198921050329869,102.4,0.110229270480083,102.4,0.176909448531197
103.4,0.173744312431647,103.4,0.154367317470861,103.4,0.082617960890688,103.4,0.0198842684286252,103.4,0.110171386292236,103.4,0.176921250236298
104.4,0.173234866582422,104.4,0.154190481447857,104.4,0.0824987920325761,104.4,0.0198550648313698,104.4,0.11009821906449,104.4,0.176973946508172
105.4,0.172490781902535,105.4,0.154065951056734,105.4,0.0823927786120606,105.4,0.0198068840083897,105.4,0.110018237702846,105.4,0.177049647293899
106.4,0.171576284252194,106.4,0.154015853296077,106.4,0.0823135520724271,106.4,0.0197451996937489,106.4,0.109941574662887,106.4,0.177128832972212
107.4,0.170581880661249,107.4,0.154051394280806,107.4,0.0822688563447826,107.4,0.0196782517017676,107.4,0.10987493528409,107.4,0.177200547999541
108.4,0.169620228968955,108.4,0.154171082810641,108.4,0.082260009734532,108.4,0.0196162489624485,108.4,0.109821218686901,108.4,0.1772620434554
109.4,0.168813153776535,109.4,0.154360622474707,109.4,0.0822835951401233,109.4,0.0195697969230468,109.4,0.109779921481137,109.4,0.177322160707568
110.4,0.168265525364278,110.4,0.154594420705124,110.4,0.0823320620838184,110.4,0.0195481303433218,110.4,0.109746685475338,110.4,0.177393587548779
111.4,0.168066589070345,111.4,0.154843814446914,111.4,0.0823996261903518,111.4,0.0195571999866676,111.4,0.109717368525566,111.4,0.177497387243104
112.4,0.168253689032695,112.4,0.155079727642653,112.4,0.0824799914998292,112.4,0.0195981753694658,112.4,0.109688583800582,112.4,0.177650494583702
113.4,0.168808708672793,113.4,0.155275535607018,113.4,0.0825704142326806,113.4,0.019666889581119,113.4,0.109659770551582,113.4,0.177862897422965
114.4,0.169676140539759,114.4,0.155414390142573,114.4,0.082671013155895,114.4,0.0197550008400522,114.4,0.109635670634668,114.4,0.178136347486808
115.4,0.170747553850556,115.4,0.15548829460064,115.4,0.082783927446134,115.4,0.019851064262458,115.4,0.109625190880006,115.4,0.178456128788189
116.4,0.171901774108795,116.4,0.155499717438107,116.4,0.0829110396584676,116.4,0.0199420239636674,116.4,0.109637126093373,116.4,0.17879567184592
117.4,0.173023228705272,117.4,0.155457411765776,117.4,0.0830540431065446,117.4,0.020016532254666,117.4,0.10968142338455,117.4,0.179119172247
118.4,0.174015771672594,118.4,0.155375653840109,118.4,0.0832089940171417,118.4,0.020066063876595,118.4,0.109762467862461,118.4,0.17938675996621
119.4,0.174827768106762,119.4,0.155271274647251,119.4,0.0833704632862878,119.4,0.0200866870694234,119.4,0.109878629878512,119.4,0.17955798393923
120.4,0.175446474220063,120.4,0.155157952408196,120.4,0.0835288734508235,120.4,0.0200781631226793,120.4,0.110022826817251,120.4,0.179602490402442
121.4,0.175907153111611,121.4,0.155050540564327,121.4,0.0836709800970546,121.4,0.0200444448822109,121.4,0.110179825480096,121.4,0.179501829910916
122.4,0.176266875840482,122.4,0.154959811777315,122.4,0.0837853830165982,122.4,0.0199915904121345,122.4,0.110331684644695,122.4,0.179259314144135
123.4,0.176592272358839,123.4,0.154890907695227,123.4,0.083863331113693,123.4,0.0199275120934931,123.4,0.1104607222533,123.4,0.178899969400735
124.4,0.176936484593242,124.4,0.154847581221988,124.4,0.083900174258235,124.4,0.0198596099358682,124.4,0.110551895324693,124.4,0.178467089482536
125.4,0.177325158774225,125.4,0.154833507285019,125.4,0.0838995961980732,125.4,0.0197947298304244,125.4,0.110597306758262,125.4,0.178021530661505
126.4,0.177750737224334,126.4,0.154847979254278,126.4,0.0838687508420484,126.4,0.0197378516296513,126.4,0.110596582260365,126.4,0.177630754202986
127.4,0.178170830685256,127.4,0.154892375611331,127.4,0.0838220809290123,127.4,0.0196936113928794,127.4,0.110557586150725,127.4,0.177361370629077
128.4,0.178519301694545,128.4,0.154963213102847,128.4,0.0837742023269452,128.4,0.0196648832285522,128.4,0.110491717445221,128.4,0.1772617109516
129.4,0.178723574019161,129.4,0.155055646500379,129.4,0.0837381356905463,129.4,0.0196524619162759,129.4,0.110414734662214,129.4,0.177359213959758
130.4,0.17872360173889,130.4,0.155159723097123,130.4,0.0837224534324835,130.4,0.0196569061702721,130.4,0.110340045359582,130.4,0.177649228760807
131.4,0.178475127297919,131.4,0.155263745211444,131.4,0.0837262171957499,131.4,0.0196770166053666,131.4,0.110278875921095,131.4,0.178094838487562
132.4,0.177972121236163,132.4,0.155351975140899,132.4,0.0837410363008904,132.4,0.0197097779587422,132.4,0.110235749641561,132.4,0.178632593075297
133.4,0.177245773022075,133.4,0.15540974632151,133.4,0.0837513716105935,133.4,0.0197512557374533,133.4,0.110212538751141,133.4,0.179178316399835
134.4,0.176355480399095,134.4,0.155422861903245,134.4,0.0837386780818272,134.4,0.0197970494303254,134.4,0.110206701357899,134.4,0.17964970550971
135.4,0.175387878938505,135.4,0.155383597300676,135.4,0.0836868070028322,135.4,0.0198418023761471,135.4,0.110212775877255,135.4,0.179975545095814
136.4,0.174434440487031,136.4,0.155289613281986,136.4,0.0835842493844378,136.4,0.0198806218644264,136.4,0.110227110756907,136.4,0.180107684769362
137.4,0.173594839670744,137.4,0.155148054795686,137.4,0.0834305393806823,137.4,0.0199106376373154,137.4,0.110246071319719,137.4,0.180037996852824
138.4,0.1729432399193,138.4,0.154974640004383,138.4,0.083236066924382,138.4,0.0199300164025407,138.4,0.110268590483256,138.4,0.179789673210478
