(R) Hippocampal formation slice 1 time (s),(R) Hippocampal formation slice 1 amplitude,(R) Hypothalamus slice 1 time (s),(R) Hypothalamus slice 1 amplitude,(R) IsocortexUD slice 1 time (s),(R) IsocortexUD slice 1 amplitude,(R) Pallidum slice 1 time (s),(R) Pallidum slice 1 amplitude,(R) Striatum slice 1 time (s),(R) Striatum slice 1 amplitude,(R) Thalamus slice 1 time (s),(R) Thalamus slice 1 amplitude
0.4,0.127116573738547,0.4,0.156219915673662,0.4,0.231910343131453,0.4,0.0200735653216084,0.4,0.124349347961564,0.4,0.1254183294018
1.4,0.129065249914889,1.4,0.157944835882714,1.4,0.246013964351593,1.4,0.01966690362385,1.4,0.124525134056408,1.4,0.125313913921994
2.4,0.130876603202383,2.4,0.159506818125625,2.4,0.258330097617686,2.4,0.01930827566986,2.4,0.124635447910644,2.4,0.125214944998794
3.4,0.132406633900474,3.4,0.160754299120425,3.4,0.26799970630946,3.4,0.019020300258548,3.4,0.124684472975101,3.4,0.125134289911775
4.4,0.13353948094752,4.4,0.161586602983445,4.4,0.27455636151207,4.4,0.0188136842115605,4.4,0.124679952811584,4.4,0.125082349774287
5.4,0.134226800916762,5.4,0.161967824475461,5.4,0.277979553451314,5.4,0.0186856847702659,5.4,0.124636919734064,5.4,0.125066284418401
6.4,0.134480337567357,6.4,0.161927096892762,6.4,0.278655993427833,6.4,0.018623166950116,6.4,0.124571342075089,6.4,0.125086817856511
7.4,0.134369693696685,7.4,0.161553279903285,7.4,0.277277683654101,7.4,0.0186064638274162,7.4,0.124501101248057,7.4,0.125140438748573
8.4,0.134014887756641,8.4,0.16097030741046,8.4,0.274699793609529,8.4,0.0186142199109521,8.4,0.124440786427131,8.4,0.125220987329811
9.4,0.133559257209671,9.4,0.160315256324486,9.4,0.271775144178567,9.4,0.0186289438578871,9.4,0.124404011086183,9.4,0.125322245962324
10.4,0.133144746403762,10.4,0.159714533740794,10.4,0.269204464639126,10.4,0.0186387000166377,10.4,0.124402235658746,10.4,0.125438804467461
11.4,0.132890089897667,11.4,0.159264930452331,11.4,0.267450591111404,11.4,0.018640739629695,11.4,0.124440368833264,11.4,0.125568857515277
12.4,0.132864113039609,12.4,0.159020412716847,12.4,0.266693847198665,12.4,0.0186385989226546,12.4,0.124520530326929,12.4,0.125713468391779
13.4,0.133084530164825,13.4,0.158992526822406,13.4,0.266852230032078,13.4,0.0186404771413242,13.4,0.124642185714863,13.4,0.125874625890887
14.4,0.133509646486952,14.4,0.159154966348389,14.4,0.267651265784124,14.4,0.0186550481304372,14.4,0.124799196059863,14.4,0.126050598535383
15.4,0.134057849314849,15.4,0.159454334856247,15.4,0.26871763242215,15.4,0.0186894740006495,15.4,0.124985827080279,15.4,0.126238911284875
16.4,0.134620932475353,16.4,0.159826740623939,16.4,0.269679092216383,16.4,0.0187463378522894,16.4,0.125192723798729,16.4,0.126428780025596
17.4,0.135091719960527,17.4,0.160210068604981,17.4,0.270249779128754,17.4,0.0188231544579819,17.4,0.125410918726577,17.4,0.126605623272689
18.4,0.13538576095045,18.4,0.160552936096356,18.4,0.270284444272965,18.4,0.0189137167619849,18.4,0.125632681574279,18.4,0.126752380971447
19.4,0.135455877797632,19.4,0.160822432668069,19.4,0.269785201711123,19.4,0.0190094841786784,19.4,0.125850016737875,19.4,0.126852829820157
20.4,0.135297779960138,20.4,0.161002069087515,20.4,0.268881841209284,20.4,0.0191012840883703,20.4,0.126055402245711,20.4,0.126894451839017
21.4,0.134943179725656,21.4,0.161092619542122,21.4,0.267792196511615,21.4,0.0191817516479851,21.4,0.126241865625661,21.4,0.126874226979083
22.4,0.134454811385308,22.4,0.161104194429246,22.4,0.266759077416681,22.4,0.0192453742849163,22.4,0.126401817394025,22.4,0.126796917596908
23.4,0.133907072249423,23.4,0.161052777934354,23.4,0.265993715428534,23.4,0.0192907572527444,23.4,0.126529717382058,23.4,0.126676067372901
24.4,0.133367406657517,24.4,0.160954869898105,24.4,0.265631748362605,24.4,0.0193178642357967,24.4,0.126620680011726,24.4,0.126529615217593
25.4,0.132894762673447,25.4,0.160828293914747,25.4,0.265714930953757,25.4,0.0193286185633859,25.4,0.12666950225363,25.4,0.126376876116608
26.4,0.132521105536443,26.4,0.160687761145699,26.4,0.266183115900412,26.4,0.0193255820454726,26.4,0.126673723347874,26.4,0.126234467348382
27.4,0.132260103141098,27.4,0.16054511487225,27.4,0.266896694384337,27.4,0.0193122129308276,27.4,0.126635184319233,27.4,0.126112706805814
28.4,0.132111696586399,28.4,0.160412723124111,28.4,0.267686802314665,28.4,0.019291146258599,28.4,0.126559795240629,28.4,0.126014977538056
29.4,0.132063804393371,29.4,0.160299661552918,29.4,0.268363751652505,29.4,0.0192653700593402,29.4,0.126457250197718,29.4,0.125939604133325
30.4,0.13211853708657,30.4,0.16021629180623,30.4,0.268815405075232,30.4,0.0192375732734314,30.4,0.126340951531588,30.4,0.125882944950266
31.4,0.132273141323004,31.4,0.160170246622693,31.4,0.268963943846908,31.4,0.0192116155737954,31.4,0.126224721632784,31.4,0.125843129126818
32.4,0.132527746868139,32.4,0.160165768309242,32.4,0.268815843981664,32.4,0.0191910589698756,32.4,0.126120940036311,32.4,0.125823015328929
33.4,0.132882985489032,33.4,0.160201525274419,33.4,0.268434402572296,33.4,0.0191794537518511,33.4,0.126038389741328,33.4,0.125832121002509
34.4,0.1333271321559,34.4,0.160273225116542,34.4,0.267931511319547,34.4,0.0191788750236285,34.4,0.125982089231582,34.4,0.125885073474858
35.4,0.133832889900269,35.4,0.160370198886442,35.4,0.267428515778255,35.4,0.0191902867184066,35.4,0.125949961631337,35.4,0.125996661456719
36.4,0.134351069502672,36.4,0.160481098329244,36.4,0.267035653861861,36.4,0.01921264800559,36.4,0.125939748868649,36.4,0.126178649979294
37.4,0.134811384983317,37.4,0.160589933570753,37.4,0.266812767139395,37.4,0.0192437322646202,37.4,0.125945470865856,37.4,0.126433435932977
38.4,0.135136507041637,38.4,0.160681340988421,38.4,0.266765179113504,38.4,0.0192797006637179,38.4,0.125959281269206,38.4,0.126750848202676
39.4,0.13526135407681,39.4,0.160742347603329,39.4,0.266853136724978,39.4,0.0193166548601333,39.4,0.125975952041167,39.4,0.127107003328535
40.4,0.13513957814812,40.4,0.160762867821662,40.4,0.266998698443837,40.4,0.0193500059858072,40.4,0.12599365624843,40.4,0.127467519041938
41.4,0.134764717033003,41.4,0.160737763035278,41.4,0.267121742727889,41.4,0.019376762550261,41.4,0.126015118708942,41.4,0.127792615533516
42.4,0.134179012968018,42.4,0.160668141456945,42.4,0.267159979321584,42.4,0.0193940509453863,42.4,0.126046049226039,42.4,0.128044390328589
43.4,0.133464498575596,43.4,0.160560284843352,43.4,0.267090233976023,43.4,0.0194005470606607,43.4,0.126092073543142,43.4,0.128193457945438
44.4,0.132728432253284,44.4,0.160424906233026,44.4,0.266930095552303,44.4,0.019395615242668,44.4,0.126158691825386,44.4,0.128227054072486
45.4,0.132085748116339,45.4,0.160278186515957,45.4,0.266728222915204,45.4,0.0193796575100666,45.4,0.126248813117496,45.4,0.128147370375003
46.4,0.13163094015556,46.4,0.160137379246857,46.4,0.266544958983312,46.4,0.0193531998483578,46.4,0.126357908701203,46.4,0.127975192735923
47.4,0.131427138010942,47.4,0.160020372457511,47.4,0.266434452617734,47.4,0.0193178742579362,47.4,0.126476288996687,47.4,0.127744956426154
48.4,0.131482410892701,48.4,0.159946539092313,48.4,0.266414866359608,48.4,0.0192758091402537,48.4,0.126588561325379,48.4,0.12749396547697
49.4,0.131752067876738,49.4,0.159931469903768,49.4,0.266463942602767,49.4,0.0192297306457747,49.4,0.126676277836178,49.4,0.127259457991204
50.4,0.132162281690255,50.4,0.159986220850508,50.4,0.266533986818332,50.4,0.0191840214519207,50.4,0.126723431336573,50.4,0.12707044065115
51.4,0.132612703225526,51.4,0.160115851792865,51.4,0.266555998581092,51.4,0.0191439175338817,51.4,0.126717203427925,51.4,0.12694398886385
52.4,0.133017682283867,52.4,0.160316500539321,52.4,0.266466071525523,52.4,0.0191146183596057,52.4,0.126655811404891,52.4,0.126882722064715
53.4,0.133310895960063,53.4,0.160575068076202,53.4,0.266239788743912,53.4,0.0191009624564254,53.4,0.12654648059126,53.4,0.126878508642878
54.4,0.133470037956071,54.4,0.160869906871872,54.4,0.265892890905759,54.4,0.0191062841670179,54.4,0.126409516519131,54.4,0.126915050606278
55.4,0.133513659935025,55.4,0.161172794294752,55.4,0.265493469944939,55.4,0.0191308359803167,55.4,0.126272939293572,55.4,0.126974286032423
56.4,0.13349120003265,56.4,0.161452687238599,56.4,0.26514280937507,56.4,0.0191719769629815,56.4,0.126168037271592,56.4,0.127038625853249
57.4,0.133467247407218,57.4,0.161680112793333,57.4,0.264951089155768,57.4,0.0192236067026152,57.4,0.126125701939319,57.4,0.127096647873701
58.4,0.133499430673603,58.4,0.161832858732763,58.4,0.265006931797656,58.4,0.0192770023838123,58.4,0.126167400043376,58.4,0.127143480637253
59.4,0.133618552877061,59.4,0.161898100105165,59.4,0.265336441928891,59.4,0.0193225656196712,59.4,0.126299685842332,59.4,0.127178674418462
60.4,0.133824050095055,60.4,0.161876963373788,60.4,0.265908700477857,60.4,0.0193513850562381,60.4,0.126513363547563,60.4,0.127207772741717
61.4,0.134088451906574,61.4,0.161782466330104,61.4,0.266625635329051,61.4,0.0193579601663801,61.4,0.12678433941866,61.4,0.127235714911672
62.4,0.134355567674584,62.4,0.161636115694893,62.4,0.267338276419276,62.4,0.0193407753287529,62.4,0.127073577444598,62.4,0.127265811491527
63.4,0.134570390023879,63.4,0.161465916909191,63.4,0.267886989055343,63.4,0.0193030471351859,63.4,0.127335437839579,63.4,0.127300847212579
64.4,0.134687920436328,64.4,0.161300115946786,64.4,0.268138044866702,64.4,0.0192523044139364,64.4,0.127525026894534,64.4,0.12733751183273
65.4,0.134691817017929,65.4,0.161165004969032,65.4,0.268011430609432,65.4,0.0191982378802092,65.4,0.127607294150336,65.4,0.127372340480721
66.4,0.134594268747709,66.4,0.161079233157517,66.4,0.267511837022746,66.4,0.019151160430093,66.4,0.127563031647131,66.4,0.127399868951946
67.4,0.134439475176804,67.4,0.161051351384153,67.4,0.266726508402503,67.4,0.0191194192235772,67.4,0.127391481803087,67.4,0.127416384406637
68.4,0.134286846625809,68.4,0.161082787396299,68.4,0.26581286462831,68.4,0.0191076335904087,68.4,0.127115370020354,68.4,0.12742112646945
69.4,0.134198532921633,69.4,0.161168191773246,69.4,0.264947226011475,69.4,0.0191153870984328,69.4,0.126773667752966,69.4,0.127417375273231
70.4,0.134222795221048,70.4,0.161299402875635,70.4,0.264311375968792,70.4,0.0191383417434648,70.4,0.126419510128053,70.4,0.127411926718914
71.4,0.134385796297019,71.4,0.161466057758844,71.4,0.264031633310387,71.4,0.0191693851480125,71.4,0.126111613113731,71.4,0.12741366413743
72.4,0.134677779848858,72.4,0.161657249184829,72.4,0.264164355052241,72.4,0.0192009564767776,72.4,0.125902438903523,72.4,0.127429860878375
73.4,0.13506824177786,73.4,0.161861807305005,73.4,0.264675464890385,73.4,0.0192268349313107,73.4,0.125833436521032,73.4,0.127468199198352
74.4,0.135502272704567,74.4,0.162067096952176,74.4,0.265466312393104,74.4,0.0192443489126042,74.4,0.125927284507832,74.4,0.127530348574093
75.4,0.135921172803933,75.4,0.16226059588761,75.4,0.266388960201204,75.4,0.0192541467160429,75.4,0.126181724556349,75.4,0.127612328029999
76.4,0.136271214794827,76.4,0.162429121705946,76.4,0.267284985418419,76.4,0.0192607585461531,76.4,0.126570719234246,76.4,0.127706104079648
77.4,0.136508598081606,77.4,0.162559967893519,77.4,0.268018795726352,77.4,0.0192690724305145,77.4,0.127047401721053,77.4,0.127797586509343
78.4,0.136614708404815,78.4,0.162643521210415,78.4,0.268508535048984,78.4,0.0192842757914693,78.4,0.12755177843651,78.4,0.127872562708834
79.4,0.13658126833391,79.4,0.162675474877432,79.4,0.268731154124902,79.4,0.0193093624824221,79.4,0.12801864449277,79.4,0.127918346383186
80.4,0.136416368742767,80.4,0.162659358578293,80.4,0.268725885857402,80.4,0.0193436640820402,80.4,0.128387127022989,80.4,0.127927503453327
81.4,0.136140678242566,81.4,0.162606463171321,81.4,0.268574505416874,81.4,0.0193837703288676,81.4,0.128610986521629,81.4,0.127900866911489
82.4,0.135772993470244,82.4,0.162531097956089,82.4,0.268374243566292,82.4,0.0194238365536267,82.4,0.128668140781295,82.4,0.127845663632651
83.4,0.135342224661448,83.4,0.162452618119685,83.4,0.268219472069102,83.4,0.0194572095977062,83.4,0.128560482833313,83.4,0.127778416559017
84.4,0.134873099036041,84.4,0.162388754138578,84.4,0.268165663954066,84.4,0.0194783528024279,84.4,0.128316291372299,84.4,0.127719839945059
85.4,0.134393783459273,85.4,0.162349122314488,85.4,0.268221754355668,85.4,0.019484751923141,85.4,0.12798453938953,85.4,0.127690768492475
86.4,0.133940471089501,86.4,0.162336512374835,86.4,0.268361991911711,86.4,0.0194767133131962,86.4,0.127623576394211,86.4,0.127708097730726
87.4,0.133542562540492,87.4,0.162343388838722,87.4,0.268521223528558,87.4,0.0194576461723058,87.4,0.127292280842808,87.4,0.127780212843526
88.4,0.133244077931484,88.4,0.1623543947433,88.4,0.268636672387398,88.4,0.0194323678805506,88.4,0.127037537083806,88.4,0.127904025656632
89.4,0.133083456229577,89.4,0.162351882724438,89.4,0.26863473552247,89.4,0.0194063792472601,89.4,0.12688371943148,89.4,0.128064918651782
90.4,0.133091254302502,90.4,0.162320270061575,90.4,0.268485000201028,90.4,0.019383188975864,90.4,0.126831500464148,90.4,0.128237893959932
91.4,0.133294736320923,91.4,0.162249680475103,91.4,0.268176508338115,91.4,0.01936451291166,91.4,0.126855601034884,91.4,0.12839333654569
92.4,0.133697481919286,92.4,0.16214071830833,92.4,0.267736828629834,92.4,0.0193495544828167,92.4,0.126914639608027,92.4,0.128500516459376
93.4,0.134288768419903,93.4,0.162002999485939,93.4,0.267218437625855,93.4,0.0193361395619282,93.4,0.126960543189172,93.4,0.128535328358482
94.4,0.135030132934339,94.4,0.161854338811919,94.4,0.266684686525906,94.4,0.019321130127946,94.4,0.126948502813673,94.4,0.128482235701343
95.4,0.13586064780062,95.4,0.161715034554803,95.4,0.266197256556461,95.4,0.0193024648954954,95.4,0.126853772840878,95.4,0.128340844909644
96.4,0.136693421922794,96.4,0.161603089322148,96.4,0.265798184447651,96.4,0.0192797330441611,96.4,0.126674538239709,96.4,0.128123049533046
97.4,0.137437905341006,97.4,0.161532619324725,97.4,0.265508264544687,97.4,0.0192548676867646,97.4,0.126434082052184,97.4,0.127852594995206
98.4,0.137996520037566,98.4,0.161508319853143,98.4,0.265309684076107,98.4,0.0192315577766924,98.4,0.126177286910991,98.4,0.127560836945543
99.4,0.138280303564658,99.4,0.161528372250071,99.4,0.265164149811588,99.4,0.0192145442057449,99.4,0.125960605293749,99.4,0.12728023372546
100.4,0.138232465417957,100.4,0.161585250988241,100.4,0.265027695877333,100.4,0.0192081949504756,100.4,0.125840913466487,100.4,0.127040627865221
101.4,0.137829479868865,101.4,0.161669274107695,101.4,0.264850571096937,101.4,0.0192156454160812,101.4,0.125857625542628,101.4,0.126863119448132
102.4,0.137089447297429,102.4,0.161771635491814,102.4,0.264595696765893,102.4,0.0192379591142319,102.4,0.126025790915849,102.4,0.126758173151446
103.4,0.136077972905291,103.4,0.16188498375081,103.4,0.264245729425735,103.4,0.0192732583049044,103.4,0.126331526858769,103.4,0.126723622592794
104.4,0.134897394407896,104.4,0.1620069853797,104.4,0.263806098319136,104.4,0.0193174906577922,104.4,0.126728765676353,104.4,0.126747147928307
105.4,0.13367891854466,105.4,0.162135945370268,105.4,0.263308911507483,105.4,0.0193657705319745,105.4,0.127154202286904,105.4,0.126810799678284
106.4,0.132560923723627,106.4,0.16227050155411,106.4,0.262802045366087,106.4,0.0194121895926521,106.4,0.127534151521283,106.4,0.126891713096106
107.4,0.131664007181811,107.4,0.162406186359105,107.4,0.262346457595109,107.4,0.0194519996637507,107.4,0.127799939317928,107.4,0.12696714231934
108.4,0.131083357795883,108.4,0.162531579313602,108.4,0.262003963395482,108.4,0.0194821864005241,108.4,0.127903116752322,108.4,0.127018896517241
109.4,0.130869158147831,109.4,0.162633165678894,109.4,0.261836188772271,109.4,0.0195016756960056,109.4,0.127825324217066,109.4,0.127037365736769
110.4,0.131028032089407,110.4,0.162694534651224,110.4,0.261879688227424,110.4,0.0195113142503085,110.4,0.127578875850185,110.4,0.12701809732309
111.4,0.131524304720209,111.4,0.162699582783644,111.4,0.262159482856111,111.4,0.019514402139987,111.4,0.127208852133727,111.4,0.126969081714178
112.4,0.1322850448613,112.4,0.162638899318859,112.4,0.262666654315031,112.4,0.0195146972482554,112.4,0.126778917206289,112.4,0.126903273927537
113.4,0.133227351187565,113.4,0.162511795190796,113.4,0.263369618142774,113.4,0.019516268317507,113.4,0.126364666010185,113.4,0.126839205886886
114.4,0.134255843755526,114.4,0.162328364046441,114.4,0.264215092802331,114.4,0.0195235606535008,114.4,0.126037201872963,114.4,0.126796169281317
115.4,0.135279660951353,115.4,0.162110362325386,115.4,0.265116041016674,115.4,0.0195391841246411,115.4,0.12584994468292,115.4,0.126789662412195
116.4,0.136220446603105,116.4,0.161885925434819,116.4,0.265989218734135,116.4,0.0195646120911236,116.4,0.125832942035641,116.4,0.126831518600953
117.4,0.137013993484621,117.4,0.161686767380142,117.4,0.266740499496487,117.4,0.019598899800343,117.4,0.125983820186191,117.4,0.126924537010536
118.4,0.137604607313762,118.4,0.161540781166408,118.4,0.267288837473069,118.4,0.0196393198390165,118.4,0.126274397465486,118.4,0.127061985556804
119.4,0.137949231328464,119.4,0.16146914084184,119.4,0.267583446397628,119.4,0.019681226785592,119.4,0.126655077106926,119.4,0.127230741342682
120.4,0.13802137809171,120.4,0.16147705691003,120.4,0.267606834236767,120.4,0.0197193402622895,120.4,0.127065256731241,120.4,0.127408256610298
121.4,0.137812809705055,121.4,0.161558568991924,121.4,0.267389502162867,121.4,0.0197481358400434,121.4,0.127444011292468,121.4,0.12757322353332
122.4,0.137331085957667,122.4,0.161693488724364,122.4,0.266992524695236,122.4,0.0197629394794986,122.4,0.127740332390424,122.4,0.127703501269733
123.4,0.136619860480256,123.4,0.161854483365705,123.4,0.266508536645355,123.4,0.0197602604638959,123.4,0.127922054038184,123.4,0.127785644119002
124.4,0.135746212856382,124.4,0.162012527020412,124.4,0.266038774450792,124.4,0.019739519006864,124.4,0.127977857147596,124.4,0.127813667533813
125.4,0.134805214754296,125.4,0.162141612011563,125.4,0.265666689256213,125.4,0.0197018036354289,125.4,0.127917537903036,125.4,0.127791396040446
126.4,0.133908072669753,126.4,0.162223645089044,126.4,0.265451513715936,126.4,0.0196510512260205,126.4,0.127766702148314,126.4,0.127733047243828
127.4,0.133163910001421,127.4,0.162250614599689,127.4,0.265397144993684,127.4,0.019592557513857,127.4,0.127560585097366,127.4,0.127656977135171
128.4,0.132664876826649,128.4,0.162226633317833,128.4,0.265460288798883,128.4,0.0195323262954121,128.4,0.127336694610448,128.4,0.12758448554296
129.4,0.132475629959542,129.4,0.162166565398934,129.4,0.265564161013186,129.4,0.0194756645039517,129.4,0.127127832436896,129.4,0.127532686313829
130.4,0.132611628330697,130.4,0.162088140199919,130.4,0.265611157442207,130.4,0.0194277367451819,130.4,0.126958243630157,130.4,0.127510647522698
131.4,0.133051438030378,131.4,0.162009366516776,131.4,0.2655048193812,131.4,0.0193916252632702,131.4,0.126841658100493,131.4,0.12751878110267
132.4,0.133726950496843,132.4,0.16194430497573,132.4,0.265184611430509,132.4,0.0193693038165091,132.4,0.126781200097403,132.4,0.127549848027422
133.4,0.134542176451955,133.4,0.161899632310119,133.4,0.264642512077747,133.4,0.01936088807497,133.4,0.126772426958848,133.4,0.127587817468318
134.4,0.13539891719827,134.4,0.161875768566762,134.4,0.263926190547446,134.4,0.019365983549761,134.4,0.126808138525516,134.4,0.127616953536926
135.4,0.136194888927845,135.4,0.161865380567703,135.4,0.26312635283806,135.4,0.0193820352315713,135.4,0.126876789524524,135.4,0.127622724009977
136.4,0.136852337480845,136.4,0.161862493202182,136.4,0.262376991026003,136.4,0.0194066294457893,136.4,0.126970062737865,136.4,0.127597862218126
137.4,0.137315989561935,137.4,0.161859285027544,137.4,0.261801718467941,137.4,0.0194364295744958,137.4,0.127077841434073,137.4,0.127543852265933
138.4,0.137558555726116,138.4,0.161854622242905,138.4,0.261492457128271,138.4,0.0194677829906811,138.4,0.127192836583507,138.4,0.127470493347029
139.4,0.137579047742935,139.4,0.161853560016195,139.4,0.261489031696065,139.4,0.0194966457494546,139.4,0.127304829502522,139.4,0.127394497649713
