(R) Hippocampal formation slice 1 time (s),(R) Hippocampal formation slice 1 amplitude,(R) Hypothalamus slice 1 time (s),(R) Hypothalamus slice 1 amplitude,(R) IsocortexUD slice 1 time (s),(R) IsocortexUD slice 1 amplitude,(R) Pallidum slice 1 time (s),(R) Pallidum slice 1 amplitude,(R) Striatum slice 1 time (s),(R) Striatum slice 1 amplitude,(R) Thalamus slice 1 time (s),(R) Thalamus slice 1 amplitude
0.4,0.0382819611401493,0.4,0.13193374761973,0.4,0.0695524645734309,0.4,0.0157569402627978,0.4,0.115604064928514,0.4,0.0916455518547994
1.4,0.0390730490663764,1.4,0.131189968677597,1.4,0.0687524687106613,1.4,0.0157359312472363,1.4,0.115145813680595,1.4,0.0915399590001787
2.4,0.0397666393894428,2.4,0.130540691938206,2.4,0.06803887746409,2.4,0.0157261715670661,2.4,0.114823945258877,2.4,0.0914609372649742
3.4,0.0403180739851479,3.4,0.13004130155709,3.4,0.0674846294650213,3.4,0.015728854239828,3.4,0.11468492918535,3.4,0.0914137261490978
4.4,0.0407080003977391,4.4,0.129727134672606,4.4,0.0671380094988283,4.4,0.0157420134017061,4.4,0.11474984202406,4.4,0.0914020300830128
5.4,0.0409380531158531,5.4,0.129603451222325,5.4,0.0670016397214495,5.4,0.0157608542684467,5.4,0.114995085765224,5.4,0.0914263516726978
6.4,0.0410310860034449,6.4,0.129648583364508,6.4,0.067047431593823,6.4,0.0157793027575621,6.4,0.115369149272044,6.4,0.0914841266890523
7.4,0.0410246936463886,7.4,0.129822392888642,7.4,0.0672248014454459,7.4,0.015791202215362,7.4,0.11580407779027,7.4,0.0915706828098581
8.4,0.0409619119472408,8.4,0.130069868749798,8.4,0.0674720530909717,8.4,0.0157913822934674,8.4,0.116222714551067,8.4,0.0916770098407492
9.4,0.0408857689978583,9.4,0.130335217309317,9.4,0.0677364705329626,9.4,0.0157772672942818,9.4,0.116565535533179,9.4,0.0917936790538341
10.4,0.0408290930014237,10.4,0.130568902368504,10.4,0.0679778415015453,10.4,0.0157488348613725,10.4,0.116792333492485,10.4,0.0919079028663799
11.4,0.040811126848202,11.4,0.130733639119445,11.4,0.0681778041058961,11.4,0.0157090058451683,11.4,0.116893488367397,11.4,0.0920079871761448
12.4,0.0408383446408128,12.4,0.130807356082864,12.4,0.0683394353399481,12.4,0.0156626921005517,12.4,0.116887350053357,12.4,0.0920831617205998
13.4,0.0409042503502094,13.4,0.130786668842684,13.4,0.0684751829644757,13.4,0.0156158376843676,13.4,0.116810469926846,13.4,0.0921250939630554
14.4,0.040993127453027,14.4,0.130680890498772,14.4,0.0685986529307346,14.4,0.0155746107164424,14.4,0.116707247969029,14.4,0.0921297434797106
15.4,0.0410851220954033,15.4,0.13050939110464,15.4,0.0687154987945197,15.4,0.0155438333813133,15.4,0.116615273776398,15.4,0.0920969381555115
16.4,0.0411623247410419,16.4,0.130299803070459,16.4,0.0688190406981442,16.4,0.0155273153539123,16.4,0.116566743991579,16.4,0.0920323160974126
17.4,0.0412089422762056,17.4,0.130078071542073,17.4,0.0688890158716977,17.4,0.0155264140165074,17.4,0.116565757471321,17.4,0.0919442165879751
18.4,0.0412165701558969,18.4,0.129869637017042,18.4,0.0688964119242409,18.4,0.0155407121553691,18.4,0.116604279125676,18.4,0.0918446883539392
19.4,0.0411853529108998,19.4,0.129697285981029,19.4,0.0688187201143913,19.4,0.0155679994027306,19.4,0.116665682017413,19.4,0.0917478539328943
20.4,0.0411220170202882,20.4,0.1295759738243,20.4,0.068643327690884,20.4,0.0156049055944079,20.4,0.116728748333257,20.4,0.0916668224737445
21.4,0.0410398975574293,21.4,0.129516826171921,21.4,0.0683796046120302,21.4,0.01564728530424,21.4,0.116780250163677,21.4,0.0916126203160922
22.4,0.0409552741992304,22.4,0.129524276855245,22.4,0.0680537420679887,22.4,0.0156907311490793,22.4,0.116812110750928,22.4,0.0915914720989604
23.4,0.0408856944413095,23.4,0.129598298335635,23.4,0.0677145022679666,23.4,0.0157309870411147,23.4,0.116833990067052,23.4,0.0916043819850853
24.4,0.0408446937532199,24.4,0.129729991408199,24.4,0.0674115019829679,24.4,0.0157644947675308,24.4,0.11685436490691,24.4,0.0916464195758871
25.4,0.040837760045628,25.4,0.12990520226721,25.4,0.0671913094688456,25.4,0.0157884508386701,25.4,0.116885834594609,25.4,0.0917079417977418
26.4,0.0408668202729196,26.4,0.130106031403681,26.4,0.0670878556280953,26.4,0.0158015774881096,26.4,0.116940222829163,26.4,0.0917761498926794
27.4,0.0409225203424908,27.4,0.130308580833661,27.4,0.0671092171357894,27.4,0.0158035810594851,27.4,0.11701496748719,27.4,0.0918370921799369
28.4,0.0409929797008861,28.4,0.130489164275817,28.4,0.0672451772064107,28.4,0.0157956586135533,28.4,0.117105601746483,28.4,0.0918788581771015
29.4,0.0410588455017704,29.4,0.130624817371205,29.4,0.0674598871299323,29.4,0.0157801584980951,29.4,0.117192875311283,29.4,0.0918936017862757
30.4,0.0411028864053627,30.4,0.130696534284856,30.4,0.0677059635290915,30.4,0.0157604152101769,30.4,0.117256531712616,30.4,0.0918798241309419
31.4,0.0411111274573134,31.4,0.130694053653015,31.4,0.0679349395780684,31.4,0.0157403151772283,31.4,0.117280827291261,31.4,0.0918417654382858
32.4,0.0410755168235983,32.4,0.130614726051263,32.4,0.0681070672885313,32.4,0.0157236725204893,32.4,0.117258522136304,32.4,0.09178936996147
33.4,0.040998745019553,33.4,0.130469532140024,33.4,0.0681990742523208,33.4,0.0157136369340744,33.4,0.117194053731378,33.4,0.0917353979370909
34.4,0.0408912126950889,34.4,0.130277963276645,34.4,0.0682045835424359,34.4,0.0157122872723401,34.4,0.1171035111105,34.4,0.0916912729433641
35.4,0.0407726682486568,35.4,0.130066516855709,35.4,0.0681354755223316,35.4,0.0157196904908771,35.4,0.117008546112438,35.4,0.0916663863277126
36.4,0.0406662032845876,36.4,0.12986416048433,36.4,0.068014736087232,36.4,0.0157344769832396,36.4,0.116929373180559,36.4,0.0916646887686684
37.4,0.0405951002078781,37.4,0.129698710991696,37.4,0.0678720324977286,37.4,0.0157534311690552,37.4,0.116878924963359,37.4,0.0916853379114773
38.4,0.0405771852675733,38.4,0.12959319834938,38.4,0.0677366084917226,38.4,0.0157723830041661,38.4,0.116857334664345,38.4,0.0917226004895079
39.4,0.0406217946329485,39.4,0.129560990833307,39.4,0.0676291914886494,39.4,0.0157870884508805,39.4,0.116850866756008,39.4,0.0917688652239842
40.4,0.0407269233391606,40.4,0.129606898647044,40.4,0.0675649474517369,40.4,0.0157934686997606,40.4,0.116837009756194,40.4,0.0918172439613179
41.4,0.0408790241098938,41.4,0.129723803293362,41.4,0.0675474854661134,41.4,0.0157886852961001,41.4,0.116787717855877,41.4,0.091862584179443
42.4,0.0410568884669381,42.4,0.129896716775843,42.4,0.0675761800250809,42.4,0.0157722137307339,42.4,0.116680620707307,42.4,0.0919044305095589
43.4,0.0412343535930764,43.4,0.13010366483351,43.4,0.0676453362514523,43.4,0.0157456283970108,43.4,0.116507299038332,43.4,0.091945858405785
44.4,0.0413854838966001,44.4,0.130319688137459,44.4,0.0677466608144919,44.4,0.0157122844980073,44.4,0.116277648197651,44.4,0.0919914586054906
45.4,0.0414891491167281,45.4,0.130520057558134,45.4,0.0678733194284391,45.4,0.0156774858176383,45.4,0.116019865839087,45.4,0.0920456634738682
46.4,0.0415320615103711,46.4,0.130683618691527,46.4,0.0680180774815346,46.4,0.0156467912121366,46.4,0.115775372906364,46.4,0.0921096249086529
47.4,0.0415099207120876,47.4,0.130793848695352,47.4,0.0681741192549315,47.4,0.0156255161304119,47.4,0.115591095917828,47.4,0.0921798542934684
48.4,0.0414302921186014,48.4,0.130841770788369,48.4,0.0683340763341763,48.4,0.0156173965799892,48.4,0.11551067715174,48.4,0.0922476151200325
49.4,0.0413081760098035,49.4,0.130826639393147,49.4,0.0684915213730495,49.4,0.0156241053792631,49.4,0.115555742652835,49.4,0.0923016609935209
50.4,0.0411652335901001,50.4,0.130756534121738,50.4,0.0686394078220757,50.4,0.0156449418242349,50.4,0.115729295322389,50.4,0.0923294811289058
51.4,0.0410278012550966,51.4,0.130647322323398,51.4,0.0687738928661292,51.4,0.015676988905036,51.4,0.116009060240462,51.4,0.0923219462902413
52.4,0.0409209807962969,52.4,0.130519474223282,52.4,0.0688936155171526,52.4,0.015715899132083,52.4,0.116353214799309,52.4,0.0922763991338211
53.4,0.0408669814771479,53.4,0.130396354178789,53.4,0.0689999660055171,53.4,0.015756628601094,53.4,0.11670819728422,53.4,0.0921978115585075
54.4,0.0408823638016493,54.4,0.130300896382258,54.4,0.0690983310189424,54.4,0.0157942759570764,54.4,0.117020220830994,54.4,0.0920981961559491
55.4,0.0409736121944984,55.4,0.130251034978864,55.4,0.0691941445066352,55.4,0.0158253940797872,55.4,0.117249698603134,55.4,0.0919961056560751
56.4,0.0411374803417059,56.4,0.130256450943136,56.4,0.0692935540609269,56.4,0.0158475899454894,56.4,0.117370200384765,56.4,0.0919111998265656
57.4,0.0413589226704661,57.4,0.130317073625225,57.4,0.0693982867114349,57.4,0.0158604277959358,57.4,0.117378003690231,57.4,0.091858875692818
58.4,0.041613437306683,58.4,0.130425852869463,58.4,0.0695062622730434,58.4,0.0158646419065633,58.4,0.117290768307935,58.4,0.0918485273920711
59.4,0.0418697305683672,59.4,0.13056683903327,59.4,0.0696108655674238,59.4,0.0158620061699663,59.4,0.117138445491664,59.4,0.0918795584470526
60.4,0.0420939216629604,60.4,0.130720550084536,60.4,0.0697012563846756,60.4,0.0158544621584825,60.4,0.116960899716047,60.4,0.0919426657224836
61.4,0.0422544829992825,61.4,0.13086675473423,61.4,0.0697665155940077,61.4,0.0158436593343365,61.4,0.116792900036016,61.4,0.092021815807565
62.4,0.042326648428501,62.4,0.130988475985429,62.4,0.0697964600390299,62.4,0.0158306860932929,62.4,0.116663364996942,62.4,0.0920978685616493
63.4,0.0422988696180622,63.4,0.131075019988056,63.4,0.069784472460726,63.4,0.0158160848527553,63.4,0.116587509208455,63.4,0.0921539169821084
64.4,0.0421738375472191,64.4,0.131122295615476,64.4,0.06973040509679,64.4,0.0158000334953163,64.4,0.116569667481065,64.4,0.0921783711063
65.4,0.0419685684419917,65.4,0.131132819531063,65.4,0.0696401871367182,65.4,0.0157826905948623,65.4,0.116606212611062,65.4,0.0921691106036787
66.4,0.0417136290906834,66.4,0.131115063821463,66.4,0.0695261581169152,66.4,0.0157647732983648,66.4,0.116685533829272,66.4,0.0921303317115104
67.4,0.0414451201347839,67.4,0.131079449161964,67.4,0.0694036855404876,67.4,0.0157474265765487,67.4,0.116793930985713,67.4,0.0920746388187443
68.4,0.0412005773505577,68.4,0.131035497577011,68.4,0.0692878903986949,68.4,0.0157320246624215,68.4,0.116914627914673,68.4,0.0920148771391099
69.4,0.0410105746839842,69.4,0.1309907907329,69.4,0.069192550469474,69.4,0.0157199602983392,69.4,0.11703304525961,69.4,0.0919640364788561
70.4,0.0408919325546982,70.4,0.130947937623442,70.4,0.0691262996684698,70.4,0.0157125662717884,70.4,0.117134845355823,70.4,0.0919287588822934
71.4,0.040847712008316,71.4,0.130908109885779,71.4,0.0690932875757729,71.4,0.0157103308717129,71.4,0.117205868675259,71.4,0.0919095573698104
72.4,0.0408648727485541,72.4,0.130871099854464,72.4,0.0690909086887924,72.4,0.0157131151694364,72.4,0.117233567651434,72.4,0.0919012435112317
73.4,0.0409210612292867,73.4,0.130835842113694,73.4,0.0691156259456616,73.4,0.0157199428065027,73.4,0.117208244108928,73.4,0.0918941015330394
74.4,0.04098744571135,74.4,0.130803076586895,74.4,0.0691593358930147,74.4,0.0157292951885173,74.4,0.117126464992037,74.4,0.0918790313035194
75.4,0.0410375116006329,75.4,0.13077415968411,75.4,0.069215813371671,75.4,0.0157399823545307,75.4,0.116987084388063,75.4,0.0918504022629338
76.4,0.0410538095554675,76.4,0.130750308011096,76.4,0.069277289260562,76.4,0.015751124889832,76.4,0.116800011691968,76.4,0.091807535155232
77.4,0.0410298706668685,77.4,0.130734937668541,77.4,0.0693386184023328,77.4,0.0157623500881813,77.4,0.116582253524982,77.4,0.0917579950104138
78.4,0.0409731650202137,78.4,0.130726503922149,78.4,0.0693932254355291,78.4,0.0157742554686704,78.4,0.116355728148149,78.4,0.091713408094078
79.4,0.0409016397736142,79.4,0.13072403248091,79.4,0.0694353526979899,79.4,0.0157875120817241,79.4,0.116147735632745,79.4,0.0916872837983099
80.4,0.0408404669752723,80.4,0.130723395996205,80.4,0.0694585415428693,80.4,0.0158028238981138,80.4,0.115982934396059,80.4,0.0916916921031215
81.4,0.04081330925525,81.4,0.130720521435582,81.4,0.0694564622757318,81.4,0.0158202948865064,81.4,0.115881909870005,81.4,0.0917318799329214
82.4,0.0408390824909665,82.4,0.130709500531128,82.4,0.0694257107299416,82.4,0.0158395457709082,82.4,0.115854664876322,82.4,0.0918058670855354
83.4,0.0409227243769276,83.4,0.130686823907901,83.4,0.0693625381705514,83.4,0.0158588897789675,83.4,0.115899767187894,83.4,0.0919032410391988
84.4,0.0410574534939177,84.4,0.130652031105279,84.4,0.0692698156126376,84.4,0.0158764066757498,84.4,0.116009704326809,84.4,0.0920067797221731
85.4,0.0412209852837877,85.4,0.130607189384237,85.4,0.0691530719852554,85.4,0.0158895924352693,85.4,0.11616332424324,85.4,0.0920967009134387
86.4,0.0413838422152276,86.4,0.130556965361248,86.4,0.0690248991801792,86.4,0.0158965196178575,86.4,0.116336089642118,86.4,0.0921547863168761
87.4,0.0415137792802831,87.4,0.130506336587268,87.4,0.0689016560766184,87.4,0.0158958838868519,87.4,0.116502601814437,87.4,0.0921690575392914
88.4,0.0415815347966972,88.4,0.130460466191393,88.4,0.0688018803476459,88.4,0.0158879537252682,88.4,0.116641364548023,88.4,0.0921367033616542
89.4,0.0415688026686266,89.4,0.130424639718288,89.4,0.0687440678985742,89.4,0.0158742048652237,89.4,0.116737598862087,89.4,0.0920630789127122
90.4,0.0414716883132236,90.4,0.130400724075175,90.4,0.0687405403888669,90.4,0.0158568978691218,90.4,0.116785034368171,90.4,0.091962022581181
91.4,0.0413022794580662,91.4,0.130388933338962,91.4,0.0687978179873759,91.4,0.0158384805052376,91.4,0.116785820273742,91.4,0.0918525237690074
92.4,0.0410870390704066,92.4,0.13038833203472,92.4,0.068912626656674,92.4,0.0158218114813715,92.4,0.116752071729599,92.4,0.091753555955825
93.4,0.0408636080912069,93.4,0.130397591874804,93.4,0.0690712568456978,93.4,0.015808587597058,93.4,0.116701093449321,93.4,0.0916804227734568
94.4,0.0406718795119405,94.4,0.130415928074196,94.4,0.0692508287482195,94.4,0.0157994894460255,94.4,0.116652329607584,94.4,0.0916423985133063
95.4,0.0405490625493651,95.4,0.130441123846082,95.4,0.0694229609069321,95.4,0.0157942039807016,95.4,0.116622128642221,95.4,0.0916409070577221
96.4,0.0405203569503352,96.4,0.130473942900471,96.4,0.0695587683861207,96.4,0.0157917902509896,96.4,0.11662318317149,96.4,0.0916698964261443
97.4,0.0405966453412655,97.4,0.130513261531909,97.4,0.0696324040750304,97.4,0.0157907596807745,97.4,0.116657992077224,97.4,0.0917185447101961
98.4,0.0407685205054506,98.4,0.130558371463539,98.4,0.0696276369975362,98.4,0.0157896439644237,98.4,0.116720731414505,98.4,0.0917747029980502
99.4,0.04101013596246,99.4,0.130606320305894,99.4,0.0695394135045209,99.4,0.0157872363863412,99.4,0.116795618636673,99.4,0.091826305394934
100.4,0.0412808917057281,100.4,0.130652861204942,100.4,0.0693767208315509,100.4,0.0157828979229369,100.4,0.116860399358484,100.4,0.0918645627974882
101.4,0.0415345021076507,101.4,0.130691747427122,101.4,0.0691628236828627,101.4,0.0157766180217545,101.4,0.116889730865993,101.4,0.0918863364179556
102.4,0.041724528825808,102.4,0.130717978927136,102.4,0.0689282056867694,102.4,0.0157688898529384,102.4,0.116861222868991,102.4,0.0918918366756333
103.4,0.0418160225683644,103.4,0.130728918379723,103.4,0.068708005653619,103.4,0.0157607109295234,103.4,0.116761932163615,103.4,0.0918856059716445
104.4,0.0417906066089593,104.4,0.130726965809762,104.4,0.0685361619495077,104.4,0.0157530585132295,104.4,0.11659018490394,104.4,0.091873958830627
105.4,0.0416514136468049,105.4,0.130716571458857,105.4,0.0684390767095442,105.4,0.0157469744283158,105.4,0.116359779365333,105.4,0.0918628260978334
106.4,0.0414234373501069,106.4,0.130708906864896,106.4,0.0684320482041802,106.4,0.0157433173303582,106.4,0.116101695220981,106.4,0.0918567188576158
107.4,0.0411485838344173,107.4,0.130715418985691,107.4,0.0685166274499852,107.4,0.0157429342821176,107.4,0.115853086975057,107.4,0.0918575295683908
108.4,0.0408794368105876,108.4,0.130748204712825,108.4,0.0686805779287813,108.4,0.0157462413310554,108.4,0.115653915096279,108.4,0.0918650467632145
109.4,0.0406688077421025,109.4,0.130815425490706,109.4,0.0688987223969397,109.4,0.0157533402344627,109.4,0.11553959225354,109.4,0.0918771361105023
110.4,0.040560053294887,110.4,0.1309187617688,110.4,0.0691393052889033,110.4,0.0157639448817016,110.4,0.115534163436592,110.4,0.0918900660655227
111.4,0.0405766061812247,111.4,0.131050745226198,111.4,0.0693646310889001,111.4,0.0157775761705036,111.4,0.115640532897332,111.4,0.0919005833798179
112.4,0.0407173720511389,112.4,0.131195513582139,112.4,0.0695388091825087,112.4,0.0157927716815565,112.4,0.115842637048014,112.4,0.0919048834127291
113.4,0.0409561034111146,113.4,0.131330838792666,113.4,0.0696315943495905,113.4,0.0158078793875672,113.4,0.116106137069244,113.4,0.0919007537212776
114.4,0.0412453309915133,114.4,0.131430959142187,114.4,0.0696235439395531,114.4,0.0158207297894599,114.4,0.116384389694779,114.4,0.091887314051109
115.4,0.0415251881845163,115.4,0.131471767706653,115.4,0.069509121067819,115.4,0.0158293118925133,115.4,0.116624430058919,115.4,0.0918622487171662
116.4,0.0417344329336864,116.4,0.131435181094818,116.4,0.0692978296802995,116.4,0.0158315671491036,116.4,0.11678153427425,116.4,0.0918252898228744
117.4,0.041823844157625,117.4,0.131315784707237,117.4,0.0690143724570022,117.4,0.0158262633231614,117.4,0.116824528293402,117.4,0.0917769850102155
118.4,0.0417648978745675,118.4,0.131117613590456,118.4,0.0686936316678069,118.4,0.0158131988048962,118.4,0.116742569621544,118.4,0.0917171940339673
119.4,0.0415567515222793,119.4,0.130858048351203,119.4,0.0683778960127848,119.4,0.0157931544732834,119.4,0.116546396381667,119.4,0.0916484231762582
120.4,0.0412256672674861,120.4,0.130560398939162,120.4,0.0681087234653726,120.4,0.0157676490962693,120.4,0.116267036878868,120.4,0.0915745919273074
121.4,0.0408207925826915,121.4,0.130254450055808,121.4,0.0679190843803713,121.4,0.0157395064270952,121.4,0.11594698085791,121.4,0.091501000110911
122.4,0.0404029869845195,122.4,0.129965263532569,122.4,0.0678267545106747,122.4,0.015711498895161,122.4,0.115632268219098,122.4,0.09143304469461
123.4,0.0400324044909665,123.4,0.129711976125594,123.4,0.0678291548732886,123.4,0.0156866419779937,123.4,0.115360837112487,123.4,0.0913771216542124
124.4,0.039756058426037,124.4,0.129504084847089,124.4,0.0679034321238371,124.4,0.015667818648315,124.4,0.115157517692191,124.4,0.0913374939046664
125.4,0.03960069101335,125.4,0.129341665123851,125.4,0.0680071180498828,125.4,0.0156571146874956,125.4,0.115028936949939,125.4,0.0913167869735848
126.4,0.0395667268250354,126.4,0.129215429083027,126.4,0.0680885931439546,126.4,0.0156555985409522,126.4,0.114962087566407,126.4,0.0913150090032144
127.4,0.0396314708775279,127.4,0.129111829369765,127.4,0.0680956118756351,127.4,0.0156632186763229,127.4,0.114931152604413,127.4,0.0913288039669554
128.4,0.0397535255727843,128.4,0.129015441241902,128.4,0.0679874587659084,128.4,0.0156790529955839,128.4,0.114902726063658,128.4,0.0913532630506493
129.4,0.0398865894213678,129.4,0.12891688659054,129.4,0.0677468242122345,129.4,0.015701106964155,129.4,0.114849384150205,129.4,0.0913829225389398
130.4,0.0399882949017983,130.4,0.128814686455492,130.4,0.0673832462226655,130.4,0.0157269057414609,130.4,0.114753879508773,130.4,0.0914134190492215
131.4,0.04003071979334,131.4,0.128714169475075,131.4,0.0669347968549501,131.4,0.0157534479151308,131.4,0.114614390374721,131.4,0.0914425392311483
132.4,0.0400057205921182,132.4,0.128630651898871,132.4,0.0664620715466971,132.4,0.0157774816228454,132.4,0.114450857055026,132.4,0.0914706660111004
133.4,0.0399251914696535,133.4,0.128583782140323,133.4,0.0660367143800629,133.4,0.0157956942305221,133.4,0.114292965957708,133.4,0.0915016275173083
134.4,0.0398154600017261,134.4,0.128591480404504,134.4,0.0657259732458104,134.4,0.0158052310444265,134.4,0.114177693755663,134.4,0.0915395718287184
135.4,0.0397087123854996,135.4,0.128670167583609,135.4,0.0655769072085471,135.4,0.0158037824659673,135.4,0.114138396449961,135.4,0.0915887317168292
136.4,0.0396344441250034,136.4,0.128824873394937,136.4,0.0656082232121126,136.4,0.0157902731148604,136.4,0.114193307186034,136.4,0.0916508498726523
