(R) Hippocampal formation slice 1 time (s),(R) Hippocampal formation slice 1 amplitude,(R) Hypothalamus slice 1 time (s),(R) Hypothalamus slice 1 amplitude,(R) IsocortexUD slice 1 time (s),(R) IsocortexUD slice 1 amplitude,(R) Pallidum slice 1 time (s),(R) Pallidum slice 1 amplitude,(R) Striatum slice 1 time (s),(R) Striatum slice 1 amplitude,(R) Thalamus slice 1 time (s),(R) Thalamus slice 1 amplitude
0.4,0.0433727627642441,0.4,0.12661455689705,0.4,0.069349797741837,0.4,0.0158381793026099,0.4,0.0922523353159584,0.4,0.0980770535396784
1.4,0.0469932912701933,1.4,0.127353365161676,1.4,0.0726019651559357,1.4,0.0158877658525401,1.4,0.0925588328481687,1.4,0.099120087051023
2.4,0.0502729091910357,2.4,0.128026267735689,2.4,0.075543003299692,2.4,0.0159339779441669,2.4,0.0928138212830503,2.4,0.100085395011084
3.4,0.0529563443176589,3.4,0.128574816411491,3.4,0.0779258597790017,3.4,0.0159722406418849,3.4,0.0929989240791076,3.4,0.100894419165262
4.4,0.054860557546356,4.4,0.1289554760253,4.4,0.0795713099313233,4.4,0.0159985462047755,4.4,0.0931035326060562,4.4,0.101486611660217
5.4,0.0558928615237972,5.4,0.129147584839952,5.4,0.0803901825859282,5.4,0.016010151027707,5.4,0.093127474659865,5.4,0.101826862385292
6.4,0.0560554462280925,6.4,0.129154787791949,6.4,0.0803907242451973,6.4,0.0160057726526129,6.4,0.0930805831832359,6.4,0.101907472446648
7.4,0.0554347053129433,7.4,0.129001899709604,7.4,0.0796704857652927,7.4,0.0159858304225761,7.4,0.0929796731736537,7.4,0.101746725210792
8.4,0.054182115245678,8.4,0.128730863817138,8.4,0.0783965410725594,8.4,0.015951930864985,8.4,0.0928454080582852,8.4,0.101384125073269
9.4,0.0524840983469289,9.4,0.128392387565532,9.4,0.0767745431159966,9.4,0.0159070775552709,9.4,0.0926981160897949,9.4,0.100871921850138
10.4,0.0505358256909005,10.4,0.128036623725595,10.4,0.0750152988189623,10.4,0.0158551719150454,10.4,0.0925550492153365,10.4,0.10026652972045
11.4,0.0485196077404116,11.4,0.127705903992499,11.4,0.0733078245274218,11.4,0.0158007761874048,11.4,0.0924264270492878,11.4,0.0996231374382469
12.4,0.0465885811154728,12.4,0.127429843675516,12.4,0.071796996889741,12.4,0.0157488977280545,12.4,0.0923151994440029,12.4,0.0989894242138085
13.4,0.0448596851883161,13.4,0.127221931064012,13.4,0.0705723674138372,13.4,0.015704702046607,13.4,0.0922185228865958,13.4,0.0984032207072744
14.4,0.0434097647448326,14.4,0.127080803816559,14.4,0.0696659806812103,14.4,0.0156729066451194,14.4,0.0921293161260282,14.4,0.0978918303801377
15.4,0.0422829688105281,15.4,0.126994247739554,15.4,0.0690631500680726,15.4,0.0156569767361854,15.4,0.0920411679729212,15.4,0.0974725901100006
16.4,0.0414951952085872,16.4,0.126943240503595,16.4,0.068715006469977,16.4,0.0156587192724764,16.4,0.0919507579707532,16.4,0.0971547179324373
17.4,0.0410410693269877,17.4,0.126907931682055,17.4,0.0685544863343414,17.4,0.0156779758872529,17.4,0.0918604868616638,17.4,0.0969406405851382
18.4,0.0408971757791831,18.4,0.126873577769151,18.4,0.0685141544320879,18.4,0.0157120511071411,18.4,0.0917782709727383,18.4,0.0968271911049416
19.4,0.0410286231023008,19.4,0.126831317991421,19.4,0.0685378464509491,19.4,0.0157562872818519,19.4,0.0917167964065829,19.4,0.0968052586477112
20.4,0.041385898467028,20.4,0.126781919597795,20.4,0.0685861560252252,20.4,0.015804453855212,20.4,0.0916899308567726,20.4,0.0968622449351457
21.4,0.0419123767086359,21.4,0.126732871086771,21.4,0.0686385877636178,21.4,0.0158495419173507,21.4,0.0917091383344379,21.4,0.0969819578487248
22.4,0.042542475891041,22.4,0.12669643190919,22.4,0.0686903057237076,22.4,0.0158851576065794,22.4,0.0917795472610758,22.4,0.0971455394831425
23.4,0.0432065330654762,23.4,0.126686211558425,23.4,0.0687449747583148,23.4,0.0159066695396413,23.4,0.0918968829369251,23.4,0.0973334038129391
24.4,0.0438378421062873,24.4,0.12671384826213,24.4,0.0688092310863856,24.4,0.0159121001684212,24.4,0.0920491706793335,24.4,0.0975273059962902
25.4,0.0443783644589574,25.4,0.126783961405069,25.4,0.0688858454635067,25.4,0.015902473283933,25.4,0.0922174738098493,25.4,0.0977115929952979
26.4,0.0447873268122255,26.4,0.126895388375067,26.4,0.0689725141772999,26.4,0.0158814334369498,26.4,0.0923798512942348,26.4,0.0978764903152187
27.4,0.0450487867569333,27.4,0.127038639772933,27.4,0.0690645927090589,27.4,0.015854862080417,27.4,0.092515539277338,27.4,0.0980181001043174
28.4,0.0451747825969365,28.4,0.12719947277407,28.4,0.0691568718597263,28.4,0.0158297509555431,28.4,0.0926094349320416,28.4,0.0981398261808371
29.4,0.0452025606327262,29.4,0.127361012464317,29.4,0.0692471681791407,29.4,0.0158125472171254,29.4,0.0926559344702366,29.4,0.0982496017219373
30.4,0.0452023545398207,30.4,0.127508048416002,30.4,0.0693510668995362,30.4,0.0158086189516997,30.4,0.0926584861953206,30.4,0.0983622295352822
31.4,0.0452507180567851,31.4,0.127627874658966,31.4,0.0694910787701149,31.4,0.0158210012689074,31.4,0.0926289138556861,31.4,0.0984933886445819
32.4,0.0454301395419941,32.4,0.127715929790744,32.4,0.0697026614989084,32.4,0.0158497037008199,32.4,0.092583486384102,32.4,0.098658128928094
33.4,0.0458138040200346,33.4,0.127774414291389,33.4,0.0700286751668,33.4,0.0158924250606426,33.4,0.092540666019034,33.4,0.098869244214384
34.4,0.0464493822882804,34.4,0.127810897974648,34.4,0.0705083182685896,34.4,0.0159441681653882,34.4,0.0925156531345034,34.4,0.0991334011646046
35.4,0.0473576946434329,35.4,0.127838070888765,35.4,0.0711717337988618,35.4,0.0159987905545983,35.4,0.0925179189787502,35.4,0.0994501545159994
36.4,0.0485241331747518,36.4,0.127868918846308,36.4,0.0720272255754767,36.4,0.016049661856791,36.4,0.0925517021857719,36.4,0.0998119943605503
37.4,0.0499009815677771,37.4,0.12791462453302,37.4,0.0730565824948047,37.4,0.0160906961799847,37.4,0.0926135704014571,37.4,0.100204051170749
38.4,0.0514154107172521,38.4,0.127980698321451,38.4,0.0742132895865332,38.4,0.0161172416751547,38.4,0.0926959020688327,38.4,0.100605396760305
39.4,0.052982024995293,39.4,0.12806685860905,39.4,0.0754304481234612,39.4,0.0161263038269824,39.4,0.0927888291959226,39.4,0.10099288156978
40.4,0.0545117859302764,40.4,0.128167200797788,40.4,0.0766242298145598,40.4,0.0161171314294828,40.4,0.0928834589580306,40.4,0.101343287034476
41.4,0.0559293554102412,41.4,0.1282730990829,41.4,0.0777136786521618,41.4,0.016091133899371,41.4,0.0929717581565035,41.4,0.101639404832091
42.4,0.0571801575779025,42.4,0.128373418694395,42.4,0.0786299583988655,42.4,0.0160516898608197,42.4,0.0930492675836068,42.4,0.101870894123043
43.4,0.0582321701094356,43.4,0.12845872940095,43.4,0.0793263816667384,43.4,0.0160032752383832,43.4,0.0931135921859433,43.4,0.102036172929705
44.4,0.0590741911642987,44.4,0.128524528572193,44.4,0.0797842841014056,44.4,0.0159515657390349,44.4,0.0931641132328816,44.4,0.102141538504805
45.4,0.0597100894367054,45.4,0.128570144740388,45.4,0.0800132623166922,45.4,0.0159021876704039,45.4,0.093200629010474,45.4,0.102199720148866
46.4,0.0601539892431307,46.4,0.128600216524814,46.4,0.0800479952100681,46.4,0.0158604212714649,46.4,0.0932221924669206,46.4,0.102226320493497
47.4,0.060423483693972,47.4,0.128620424348273,47.4,0.0799379801482752,47.4,0.0158306784504687,47.4,0.0932284827217163,47.4,0.102235597678398
48.4,0.0605373588165089,48.4,0.128639897014679,48.4,0.079739842467784,48.4,0.0158157687301674,48.4,0.0932183304698336,48.4,0.10223717948745
49.4,0.0605172858988879,49.4,0.12866580766374,49.4,0.0795067933721396,49.4,0.0158170117904197,49.4,0.0931926228272292,49.4,0.102235188575377
50.4,0.0603910141178972,50.4,0.128702030138793,50.4,0.0792857262225216,50.4,0.0158342700380943,50.4,0.0931555558689996,50.4,0.102227912054532
51.4,0.060196744367453,51.4,0.128750404596935,51.4,0.0791115445907893,51.4,0.0158655077104149,51.4,0.0931135097461302,51.4,0.102209815252793
52.4,0.0599820036032881,52.4,0.128808738759879,52.4,0.0790060362944868,52.4,0.0159071246567509,52.4,0.0930750293426234,52.4,0.102174945269513
53.4,0.0598034690954989,53.4,0.128873145680709,53.4,0.0789794933166719,53.4,0.015955073341481,53.4,0.0930505624617108,53.4,0.102120839989382
54.4,0.0597195347662387,54.4,0.128938504934266,54.4,0.0790331066024642,54.4,0.0160044624178625,54.4,0.0930487804009246,54.4,0.10205212366158
55.4,0.0597751101523871,55.4,0.129000266581897,55.4,0.0791572312179704,55.4,0.0160506058533375,55.4,0.0930753148958007,55.4,0.101978951728637
56.4,0.0599929013254939,56.4,0.129054340107907,56.4,0.0793354914752766,56.4,0.016089790148999,56.4,0.0931299586356535,56.4,0.1019170608221
57.4,0.0603599298762649,57.4,0.129097192134464,57.4,0.0795399959703252,57.4,0.0161192503025396,57.4,0.0932066815621197,57.4,0.101883848250494
58.4,0.0608257129248042,58.4,0.129124809829862,58.4,0.0797350964840425,58.4,0.0161382655317824,58.4,0.0932937661391747,58.4,0.101893495338174
59.4,0.0613059164042624,59.4,0.129132488848193,59.4,0.0798772365930194,59.4,0.0161473503475864,59.4,0.0933750547534824,59.4,0.101950632232133
60.4,0.061687354051066,60.4,0.129113821013415,60.4,0.0799176624753508,60.4,0.0161483488401652,60.4,0.0934323367833419,60.4,0.102046244939374
61.4,0.061847657023292,61.4,0.129060931128401,61.4,0.0798059679886513,61.4,0.0161437734768669,61.4,0.0934500931090197,61.4,0.102157578406474
62.4,0.0616758468956323,62.4,0.128964045695785,62.4,0.0794967994177462,62.4,0.0161363926029784,62.4,0.0934167877110399,62.4,0.102247887829893
63.4,0.0610901372876567,63.4,0.128814394593332,63.4,0.0789587006084393,63.4,0.0161281939637042,63.4,0.0933279223121512,63.4,0.102273441281938
64.4,0.0600514346650714,64.4,0.128607212286268,64.4,0.0781777847382311,64.4,0.0161199250096028,64.4,0.0931864773261235,64.4,0.102190135122101
65.4,0.0585747359570325,65.4,0.1283411824068,65.4,0.0771640962856411,65.4,0.016110753305468,65.4,0.0930036593822497,65.4,0.10196167461218
66.4,0.0567249398634878,66.4,0.128022428597456,66.4,0.0759527024893599,66.4,0.0160984178251356,66.4,0.0927962239662001,66.4,0.101570006613777
67.4,0.0546072951063113,67.4,0.127664611354692,67.4,0.0746000912775739,67.4,0.016079809582474,67.4,0.092582082199783,67.4,0.101018192823854
68.4,0.0523556774658905,68.4,0.127287484436217,68.4,0.0731802996565683,68.4,0.0160520220404643,68.4,0.0923803809940995,68.4,0.100333948391774
69.4,0.0501168585732189,69.4,0.126915939452667,69.4,0.0717795860623734,69.4,0.0160131398431018,69.4,0.0922067950140478,69.4,0.0995674678933278
70.4,0.0480343549984629,70.4,0.126577231202332,70.4,0.0704859470881978,70.4,0.015963153984948,70.4,0.0920720953499669,70.4,0.0987848329846333
71.4,0.0462392518101089,71.4,0.126296698522262,71.4,0.0693832707673597,71.4,0.0159044399181377,71.4,0.0919815837893245,71.4,0.0980602877936572
72.4,0.0448388489983416,72.4,0.126096480746436,72.4,0.0685420985450437,72.4,0.0158418592348381,72.4,0.091934698465876,72.4,0.0974655143030066
73.4,0.0439106465497392,73.4,0.125991556822729,73.4,0.0680147825828065,73.4,0.0157813488216192,73.4,0.091927793722063,73.4,0.0970587477642589
74.4,0.0434999019961186,74.4,0.125988866507411,74.4,0.0678312276643408,74.4,0.015729776522112,74.4,0.0919540007830782,74.4,0.0968776571459234
75.4,0.0436222172256075,75.4,0.126085405269135,75.4,0.0679972766542639,75.4,0.0156930616000649,75.4,0.092006812409631,75.4,0.0969354087659249
76.4,0.0442578714596936,76.4,0.126271042220126,76.4,0.0684930988236345,76.4,0.0156751821999362,76.4,0.0920795541544679,76.4,0.097219502501863
77.4,0.0453580579208443,77.4,0.126527649584354,77.4,0.0692784043418685,77.4,0.0156776706346427,77.4,0.0921671833746715,77.4,0.0976945419198998
78.4,0.0468436568198781,78.4,0.126832372902807,78.4,0.070295475980514,78.4,0.0156993531998087,78.4,0.0922657006901555,78.4,0.0983083866708913
79.4,0.0486114199676585,79.4,0.127159629684548,79.4,0.0714724358623987,79.4,0.0157366283269932,79.4,0.092371747090734,79.4,0.099000905176255
80.4,0.0505417520678674,80.4,0.127483930035635,80.4,0.0727323394468163,80.4,0.0157841964063912,80.4,0.0924823791988306,80.4,0.0997103520650422
81.4,0.0525069671807068,81.4,0.127781459848743,81.4,0.0739978625649871,81.4,0.0158366309393319,81.4,0.0925922283894627,81.4,0.100382972549662
82.4,0.0543860304117005,82.4,0.128033375165618,82.4,0.0751998529130166,82.4,0.0158890153763815,82.4,0.0926961749263171,82.4,0.100977587424568
83.4,0.0560744781031913,83.4,0.128225929895092,83.4,0.0762822139451586,83.4,0.0159380457141931,83.4,0.0927887781790764,83.4,0.101467720096579
84.4,0.057497442462407,84.4,0.128352394782221,84.4,0.0772059784261303,84.4,0.0159816420800789,84.4,0.0928646495427863,84.4,0.101844134027141
85.4,0.0586148666973755,85.4,0.128411552530012,85.4,0.0779501457573534,85.4,0.0160193890745913,85.4,0.0929194661222008,85.4,0.102109895524485
86.4,0.059424039476809,86.4,0.128409098278992,86.4,0.0785105741595814,86.4,0.0160517816124,86.4,0.0929512916636732,86.4,0.102279480524067
87.4,0.0599581185488731,87.4,0.128356848932586,87.4,0.0788969627579872,87.4,0.0160792365783689,87.4,0.0929612304592409,87.4,0.102373781735829
88.4,0.0602762581237947,88.4,0.128271322362707,88.4,0.0791314923068025,88.4,0.016102414600732,88.4,0.0929537264749242,88.4,0.102414980415293
89.4,0.0604502296931551,89.4,0.128171462737471,89.4,0.0792417092426159,89.4,0.0161209938974662,89.4,0.0929356581261782,89.4,0.102425051471972
90.4,0.0605505164354353,90.4,0.128077574124898,90.4,0.0792587140728052,90.4,0.0161340199173981,90.4,0.0929149669063397,90.4,0.102422069821864
91.4,0.0606395174874911,91.4,0.128009391743965,91.4,0.07921712554796,91.4,0.0161408173519289,91.4,0.0929001062002911,91.4,0.102419526403349
92.4,0.0607529606931643,92.4,0.127982509611136,92.4,0.0791484062995959,92.4,0.016140758049222,92.4,0.0928969533310443,92.4,0.102426270461163
93.4,0.0609022017493924,93.4,0.128007404728281,93.4,0.0790822669291619,93.4,0.0161341202809844,93.4,0.0929085911293891,93.4,0.102446241910071
94.4,0.0610733823417487,94.4,0.12808683764049,94.4,0.0790439222233211,94.4,0.0161221451509571,94.4,0.0929345101586028,94.4,0.102479610876112
95.4,0.0612336517554261,95.4,0.128215589910075,95.4,0.0790536725305471,95.4,0.016107336260495,95.4,0.0929706473939476,95.4,0.102523529736041
96.4,0.061341445551451,96.4,0.128380911874417,96.4,0.0791243598733528,96.4,0.0160926161537612,96.4,0.0930100462636474,96.4,0.102573328502091
97.4,0.0613578758340852,97.4,0.128563086102187,97.4,0.079258892586792,97.4,0.0160810451310889,97.4,0.0930444165361821,97.4,0.102622504763255
98.4,0.0612534597384826,98.4,0.128738593637199,98.4,0.0794485358450996,98.4,0.016074744346965,98.4,0.0930668382176223,98.4,0.10266384666273
99.4,0.0610201171266059,99.4,0.128884663174531,99.4,0.0796756224158112,99.4,0.016074651148957,99.4,0.0930725949601203,99.4,0.102690565201296
100.4,0.06067553411734,100.4,0.128981219783054,100.4,0.0799150047355699,100.4,0.0160805199628796,100.4,0.0930607247606052,100.4,0.102698354774667
101.4,0.0602586811674768,101.4,0.129015054014408,101.4,0.0801368744548284,101.4,0.0160906138662024,101.4,0.09303533771051,101.4,0.102684386838034
102.4,0.0598251154314008,102.4,0.128983519248087,102.4,0.0803123539559396,102.4,0.0161023911815788,102.4,0.0930046827039152,102.4,0.10265024615435
103.4,0.0594364153952277,103.4,0.128893841773868,103.4,0.0804169857777855,103.4,0.0161129077157687,103.4,0.0929796637552332,103.4,0.102600618155326
104.4,0.0591463407341838,104.4,0.128763592539862,104.4,0.0804341919274475,104.4,0.0161195942512138,104.4,0.0929714872353502,104.4,0.102542955394312
105.4,0.0589964362058371,105.4,0.128616450585987,105.4,0.0803609474814261,105.4,0.0161207893888793,105.4,0.0929898205125946,105.4,0.102486858031287
106.4,0.0590026299077476,106.4,0.128477877023508,106.4,0.0802057663093019,106.4,0.0161159859091957,106.4,0.0930397750186509,106.4,0.102441800351019
107.4,0.0591519875503257,107.4,0.128372109307353,107.4,0.0799855321601905,107.4,0.0161052792782319,107.4,0.0931191582678636,107.4,0.102415054080488
108.4,0.0594083103047085,108.4,0.128316021429777,108.4,0.0797255735083294,108.4,0.0160899291334458,108.4,0.093219238624676,108.4,0.102411203642358
109.4,0.0597187987026937,109.4,0.128317160146569,109.4,0.0794534984257239,109.4,0.0160714096389756,109.4,0.0933252860556858,109.4,0.102429250678072
110.4,0.0600183156058372,110.4,0.128372986802099,110.4,0.079195583846202,110.4,0.0160505562473317,110.4,0.0934193183121799,110.4,0.10246269429421
111.4,0.0602466453239544,111.4,0.128471733436513,111.4,0.0789716875049395,111.4,0.0160280545278129,111.4,0.0934827258415465,111.4,0.102500251893482
112.4,0.060361440391545,112.4,0.128595112915732,112.4,0.0787976178146474,112.4,0.0160039795870102,112.4,0.0935008847368572,112.4,0.102530107636688
113.4,0.0603411078154429,113.4,0.12872251489595,113.4,0.0786785717172227,113.4,0.0159781810658814,113.4,0.0934669553669037,113.4,0.102538839542055
114.4,0.0601877467195132,114.4,0.128834618508837,114.4,0.0786145768752489,114.4,0.0159507217297294,114.4,0.0933830295753228,114.4,0.102515803937456
115.4,0.059928560215464,115.4,0.128917062932059,115.4,0.0785990471324572,115.4,0.0159226063768404,115.4,0.0932620371165084,115.4,0.102455668816972
116.4,0.0596039620402457,116.4,0.128961007599464,116.4,0.0786206146369302,116.4,0.0158955568479663,116.4,0.093124848397379,116.4,0.102360305026241
117.4,0.0592645672871543,117.4,0.128964552580419,117.4,0.0786671939687503,117.4,0.0158727108013083,117.4,0.092996988714029,117.4,0.102238503361785
118.4,0.0589548900009741,118.4,0.128931573874037,118.4,0.0787252625421259,118.4,0.0158580868019142,118.4,0.0929039713390941,118.4,0.102104195310397
119.4,0.0587072892103193,119.4,0.128868341857247,119.4,0.0787841659558575,119.4,0.0158557136743285,119.4,0.092865370525616,119.4,0.101975698865309
120.4,0.0585355749849181,120.4,0.128783175794073,120.4,0.0788341829382512,120.4,0.0158686770012639,120.4,0.0928917919408221,120.4,0.101871044010301
121.4,0.0584362200254295,121.4,0.128683388076253,121.4,0.078868801339043,121.4,0.015898502614506,121.4,0.092981855901805,121.4,0.101807139673374
122.4,0.0583899999195506,122.4,0.128575823095599,122.4,0.0788868802613046,122.4,0.0159440929705001,122.4,0.0931219940592175,122.4,0.101795880176395
123.4,0.058368730626715,123.4,0.128465028590846,123.4,0.0788889792425096,123.4,0.0160013499070191,123.4,0.0932883373549259,123.4,0.101840629589182
124.4,0.0583440498088629,124.4,0.128355377367492,124.4,0.078880066583431,124.4,0.0160634591355779,124.4,0.0934525395825915,124.4,0.101938861181093
125.4,0.0582948319975265,125.4,0.128251391251227,125.4,0.0788669084609032,125.4,0.0161220306892088,125.4,0.0935847077643254,125.4,0.102080572564144
126.4,0.0582104179687568,126.4,0.128158183769935,126.4,0.0788545901963906,126.4,0.0161684228941208,126.4,0.0936607993190138,126.4,0.102250272812218
127.4,0.0580923119829699,127.4,0.12808239959522,127.4,0.0788482927654692,127.4,0.0161956403318386,127.4,0.0936653266429873,127.4,0.102429230257286
128.4,0.0579518226261505,128.4,0.128029743626346,128.4,0.0788494007177843,128.4,0.0161996834023013,128.4,0.0935951287407781,128.4,0.102597292237908
129.4,0.0578041424909368,129.4,0.128004596279965,129.4,0.0788544363449253,129.4,0.0161804541215557,129.4,0.093458772887772,129.4,0.102735898888343
130.4,0.0576657657253194,130.4,0.128009730806846,130.4,0.0788567420765291,130.4,0.0161425419775298,130.4,0.0932750571425114,130.4,0.102829860164584
131.4,0.0575447207479982,131.4,0.128043655446922,131.4,0.0788468144203547,131.4,0.0160935184819064,131.4,0.0930698982911313,131.4,0.102868250600391
132.4,0.0574372526784699,132.4,0.128101488430002,132.4,0.0788133577521519,132.4,0.0160432683405688,132.4,0.0928699418756344,132.4,0.102844202397173
133.4,0.0573306355573189,133.4,0.128175694508803,133.4,0.0787470813999085,133.4,0.0160014108750868,133.4,0.0926996829984496,133.4,0.102756885088649
134.4,0.0572084078626021,134.4,0.128256712644513,134.4,0.0786447746168548,134.4,0.0159754251602894,134.4,0.0925768769298602,134.4,0.102611431006475
135.4,0.0570510087047582,135.4,0.128335989207307,135.4,0.0785085765406804,135.4,0.0159693619126656,135.4,0.092510275869206,135.4,0.102419941583195
136.4,0.0568516465904172,136.4,0.128407381056912,136.4,0.0783503973756123,136.4,0.0159828909593625,136.4,0.0924999217703974,136.4,0.10219954193608
