(R) Hippocampal formation slice 1 time (s),(R) Hippocampal formation slice 1 amplitude,(R) Hypothalamus slice 1 time (s),(R) Hypothalamus slice 1 amplitude,(R) IsocortexUD slice 1 time (s),(R) IsocortexUD slice 1 amplitude,(R) Pallidum slice 1 time (s),(R) Pallidum slice 1 amplitude,(R) Striatum slice 1 time (s),(R) Striatum slice 1 amplitude,(R) Thalamus slice 1 time (s),(R) Thalamus slice 1 amplitude
0.4,0.0716713045595945,0.4,0.14899390321813,0.4,0.10957781309751,0.4,0.0177531627898955,0.4,0.144222916548511,0.4,0.105320586142313
1.4,0.0704681925171454,1.4,0.146572598736934,1.4,0.109000946265932,1.4,0.0179711954892242,1.4,0.14263109710337,1.4,0.103887470207357
2.4,0.0691858947541104,2.4,0.144411998752284,2.4,0.108236869337678,2.4,0.0181611621086059,2.4,0.141201654685534,2.4,0.102542132186843
3.4,0.0679764441856635,3.4,0.142671776512063,3.4,0.107406831345488,3.4,0.0183073602498582,3.4,0.140068362051506,3.4,0.101404554418617
4.4,0.0669519134167541,4.4,0.141442345106337,4.4,0.106605360722407,4.4,0.0183998225124417,4.4,0.139308784741975,4.4,0.100552965750458
5.4,0.0661838286126523,5.4,0.140739903099254,5.4,0.105908444958063,5.4,0.0184366528835908,5.4,0.13894281915874,5.4,0.100017076110838
6.4,0.0656951191898367,6.4,0.140511609339122,6.4,0.105365644938115,6.4,0.0184251002529627,6.4,0.138936798337816,6.4,0.0997794542286079
7.4,0.0654750816209393,7.4,0.140652842544678,7.4,0.1050068118797,7.4,0.018377707701805,7.4,0.139209033426105,7.4,0.099786481360103
8.4,0.0654905055932547,8.4,0.141033269391088,8.4,0.10485327077296,8.4,0.0183130246912123,8.4,0.139659262961453,8.4,0.099963215789413
9.4,0.0657010193349005,9.4,0.141520304315129,9.4,0.104918288215834,9.4,0.0182499475103461,9.4,0.140183382438229,9.4,0.100229266722572
10.4,0.0660654946567136,10.4,0.142003584689301,10.4,0.105205417006795,10.4,0.0182040952739037,10.4,0.140685056956638,10.4,0.10051381272706
11.4,0.0665507017478142,11.4,0.142405860073563,11.4,0.105710471766227,11.4,0.018186071645604,11.4,0.141094741652771,11.4,0.100766195913065
12.4,0.067126338414373,12.4,0.142687759657309,12.4,0.106412742094922,12.4,0.0181982059425717,12.4,0.141370692037407,12.4,0.100958122822964
13.4,0.0677609493058589,13.4,0.142843797100291,13.4,0.107274683822672,13.4,0.0182363101788333,13.4,0.14149805569388,13.4,0.101083363068182
14.4,0.0684207809941366,14.4,0.142892733358389,14.4,0.108239297589936,14.4,0.0182916476028804,14.4,0.141488779337492,14.4,0.101150965456358
15.4,0.0690617399007965,15.4,0.14286406339913,15.4,0.109235235859138,15.4,0.0183525257227315,15.4,0.141373198108573,15.4,0.101179716085206
16.4,0.0696333576624582,16.4,0.142789193539623,16.4,0.11017989319851,16.4,0.0184089599213419,16.4,0.141195918479174,16.4,0.101189472581896
17.4,0.0700851461509422,17.4,0.142696079792986,17.4,0.110995763554452,17.4,0.018454488929343,17.4,0.141006754276522,17.4,0.101195829245903
18.4,0.0703726239289972,18.4,0.14260475519562,18.4,0.111620330339074,18.4,0.0184880906476089,18.4,0.140860044945838,18.4,0.101208450837307
19.4,0.0704670938527458,19.4,0.142528337096491,19.4,0.112009102030732,19.4,0.018513366329403,19.4,0.140801864797286,19.4,0.101230111231528
20.4,0.0703621646021946,20.4,0.142475046940014,20.4,0.112143210870709,20.4,0.0185374402047347,20.4,0.140866727648054,20.4,0.101258215960351
21.4,0.0700764076098874,21.4,0.142453291955091,21.4,0.112031951547433,21.4,0.0185683908517766,21.4,0.141074084643741,21.4,0.101288005561879
22.4,0.0696501723547099,22.4,0.142470827357826,22.4,0.111704437445198,22.4,0.0186127139826551,22.4,0.141420968149584,22.4,0.101314945750665
23.4,0.0691353009400457,23.4,0.142532516878197,23.4,0.11120231883884,23.4,0.0186728570243625,23.4,0.141878537904878,23.4,0.101335525152797
24.4,0.0685911063441981,24.4,0.142639998414137,24.4,0.110578733973677,24.4,0.0187466139697816,24.4,0.142397749138673,24.4,0.101347686094427
25.4,0.0680691495396186,25.4,0.142790169837856,25.4,0.109883696251792,25.4,0.0188275552825396,25.4,0.142912947074343,25.4,0.101350320484343
26.4,0.0676072386658619,26.4,0.142972284548547,26.4,0.109164342405227,26.4,0.0189069189143427,26.4,0.143356637696619,26.4,0.101343209618486
27.4,0.0672254764419719,27.4,0.143169211937344,27.4,0.108461140593861,27.4,0.0189750116671594,27.4,0.143666840955014,27.4,0.101326093171322
28.4,0.0669249340748841,28.4,0.143359977783265,28.4,0.107805192056625,28.4,0.0190242390990376,28.4,0.143802023225457,28.4,0.101299466879674
29.4,0.0666929671447074,29.4,0.143523409877035,29.4,0.107221334489844,29.4,0.0190500276637856,29.4,0.143746417487072,29.4,0.10126460970671
30.4,0.0665055337772875,30.4,0.143636837941062,30.4,0.106726641625709,30.4,0.0190517863133507,30.4,0.143513035454678,30.4,0.101219761612451
31.4,0.0663400312960732,31.4,0.143687715109826,31.4,0.106331705581478,31.4,0.0190326963941772,31.4,0.143143921204426,31.4,0.101168128577072
32.4,0.0661759464254512,32.4,0.143671542081591,32.4,0.106039827315188,32.4,0.0189970559223012,32.4,0.142698573353179,32.4,0.101113375744001
33.4,0.0660023209640836,33.4,0.143592406739161,33.4,0.105847336833747,33.4,0.0189500258939569,33.4,0.142244623597871,33.4,0.101060625960383
34.4,0.0658156587863023,34.4,0.143459569091151,34.4,0.105742805420647,34.4,0.018895467116616,34.4,0.141843326768331,34.4,0.101014516800381
35.4,0.0656238135810577,35.4,0.143288045151299,35.4,0.105710549190801,35.4,0.0188357919801269,35.4,0.14154096637024,35.4,0.100979420250069
36.4,0.0654361413620773,36.4,0.143094331459704,36.4,0.105730073436586,36.4,0.0187696228262534,36.4,0.141358354764194,36.4,0.100960839834089
37.4,0.0652677853129081,37.4,0.142894375367555,37.4,0.105781735895009,37.4,0.0186964912589229,37.4,0.141299208097955,37.4,0.100961952460328
38.4,0.0651295477819216,38.4,0.142703425464056,38.4,0.105842228592833,38.4,0.0186148565708784,38.4,0.141342498072151,38.4,0.100984020514444
39.4,0.0650273006547917,39.4,0.142534221199601,39.4,0.105893435378681,39.4,0.0185255496557966,39.4,0.141458843874447,39.4,0.101027062393708
40.4,0.0649607465827952,40.4,0.14239706958063,40.4,0.10591734070882,40.4,0.0184328703803747,40.4,0.141613481081439,40.4,0.101088082739676
41.4,0.0649267875731036,41.4,0.142300628970629,41.4,0.105902781436885,41.4,0.018343656451263,41.4,0.141774690765763,41.4,0.101162304535456
42.4,0.0649193051037031,42.4,0.142249493315345,42.4,0.105841880209386,42.4,0.0182666050968659,42.4,0.141915218066493,42.4,0.101242432651676
43.4,0.0649299904339777,43.4,0.142245134263514,43.4,0.105737490931931,43.4,0.0182106865623931,43.4,0.142015950929269,43.4,0.101320024550865
44.4,0.0649525257936914,44.4,0.142284168105548,44.4,0.105590646666562,44.4,0.0181819289862227,44.4,0.142061628935559,44.4,0.101384198067115
45.4,0.064984748302529,45.4,0.142358824768966,45.4,0.105413730823189,45.4,0.0181823919394087,45.4,0.142043960934679,45.4,0.101424993618817
46.4,0.0650255778172429,46.4,0.142456484201673,46.4,0.105227177022851,46.4,0.0182091847509165,46.4,0.141955837925846,46.4,0.101433671316926
47.4,0.0650755989985087,47.4,0.14256119788824,47.4,0.105048094759808,47.4,0.0182534071034301,47.4,0.141793747743601,47.4,0.101403755716434
48.4,0.0651348229532243,48.4,0.14265719280159,48.4,0.104900500770105,48.4,0.0183031799717071,48.4,0.141560546062128,48.4,0.101333125774619
49.4,0.0652000743960861,49.4,0.142731613945436,49.4,0.104801266910074,49.4,0.0183452967947907,49.4,0.141268671564412,49.4,0.101225624917785
50.4,0.0652625987593531,50.4,0.142775906795626,50.4,0.104757612204791,50.4,0.0183684545947034,50.4,0.140941568197998,50.4,0.101089307390386
51.4,0.0653146252742778,51.4,0.142790918172337,51.4,0.104770083878298,51.4,0.0183661777461936,51.4,0.140616931039385,51.4,0.100938343080198
52.4,0.0653397659545783,52.4,0.142783875701649,52.4,0.104821325322017,52.4,0.0183369346140458,52.4,0.140335070303614,52.4,0.100788192354303
53.4,0.0653273142638905,53.4,0.14276886393154,53.4,0.104895962336948,53.4,0.0182871961476852,53.4,0.140145756481866,53.4,0.10065527527061
54.4,0.0652679884171323,54.4,0.142763497254076,54.4,0.104971668143326,54.4,0.0182276183903287,54.4,0.140089961502076,54.4,0.100552554671575
55.4,0.065163665780956,55.4,0.142784782246947,55.4,0.105034510486983,55.4,0.0181724329408184,55.4,0.14019577300959,55.4,0.100490424763548
56.4,0.0650243514361411,56.4,0.142844424643529,56.4,0.105083537585112,56.4,0.0181368185836301,56.4,0.140472238277942,56.4,0.100472627025708
57.4,0.0648711511844016,57.4,0.142944970547211,57.4,0.105125349584585,57.4,0.0181315709789553,57.4,0.140897774607944,57.4,0.100497614065781
58.4,0.0647305272881766,58.4,0.143078711668432,58.4,0.105177170226005,58.4,0.018162254641551,58.4,0.141427899818721,58.4,0.100559857834509
59.4,0.0646289311713593,59.4,0.143228632566577,59.4,0.105264741423465,59.4,0.0182286864149192,59.4,0.141998198442635,59.4,0.100649250682249
60.4,0.0645850243681154,60.4,0.143370426405514,60.4,0.105399683998912,60.4,0.0183220125285161,60.4,0.142530044068783,60.4,0.100755579037599
61.4,0.0646075189221506,61.4,0.14347949727829,61.4,0.105584926298055,61.4,0.0184291237619516,61.4,0.142949653715954,61.4,0.100867944391224
62.4,0.0646870144959923,62.4,0.143534348427187,62.4,0.105796259223946,62.4,0.0185334239507167,62.4,0.143193952941938,62.4,0.100975635833623
63.4,0.0648025623651636,63.4,0.143522442303254,63.4,0.105992627254713,63.4,0.0186183384361023,63.4,0.143225357874556,63.4,0.101069939661291
64.4,0.0649224933785477,64.4,0.143443731743673,64.4,0.106117900137799,64.4,0.0186712751992798,64.4,0.143038600546636,64.4,0.101142905559492
65.4,0.0650141453930291,65.4,0.143310199654502,65.4,0.106119876928992,65.4,0.0186840460287627,65.4,0.142657473289536,65.4,0.101187995967483
66.4,0.0650462809922183,66.4,0.143142352704769,66.4,0.105958355151392,66.4,0.0186538757656401,66.4,0.142128355446554,66.4,0.101199923519692
67.4,0.0650063696241764,67.4,0.142967863940693,67.4,0.105632690055132,67.4,0.0185862618049995,67.4,0.141525622240784,67.4,0.10117449476558
68.4,0.0648944276394282,68.4,0.142813660706016,68.4,0.105179228415023,68.4,0.0184915841834431,68.4,0.140926678524536,68.4,0.101109485785042
69.4,0.0647307680659997,69.4,0.142702408613431,69.4,0.104674014464475,69.4,0.018385135697674,69.4,0.140408739018349,69.4,0.101007320516203
70.4,0.0645488692294677,70.4,0.142648267330369,70.4,0.104223281027614,70.4,0.018283427947219,70.4,0.140038534012894,70.4,0.100874262351362
71.4,0.0643858041966568,71.4,0.142656205209592,71.4,0.103944127827909,71.4,0.0182014845129455,71.4,0.139860098609821,71.4,0.100721798002908
72.4,0.0642796889738717,72.4,0.142723287260562,72.4,0.103935052435073,72.4,0.0181514997397654,72.4,0.139893114954314,72.4,0.100565759252883
73.4,0.0642566610498209,73.4,0.142838514124002,73.4,0.104255643370739,73.4,0.0181400873459106,73.4,0.140129946913121,73.4,0.100424087323912
74.4,0.064325902625215,74.4,0.142986543138067,74.4,0.104904310373593,74.4,0.0181673646863169,74.4,0.140537531298688,74.4,0.100314731646621
75.4,0.064478195854922,75.4,0.143151668741146,75.4,0.10581223199465,75.4,0.0182266734397376,75.4,0.1410615000105,75.4,0.100250091217536
76.4,0.0646890499993506,76.4,0.143318718760986,76.4,0.106854154641102,76.4,0.0183061777003318,76.4,0.141633809817486,76.4,0.100236095850268
77.4,0.0649261614104785,77.4,0.143475530508682,77.4,0.107870673589886,77.4,0.0183906041296599,77.4,0.142184675006738,77.4,0.100271728348597
78.4,0.0651548216123617,78.4,0.143611627768277,78.4,0.108693974130737,78.4,0.0184643653134544,78.4,0.142648217469304,78.4,0.100346029141514
79.4,0.0653438466982251,79.4,0.143719232060095,79.4,0.109184494202336,79.4,0.0185128274990393,79.4,0.142972171429744,79.4,0.100443444661289
80.4,0.0654782076513689,80.4,0.143794522341619,80.4,0.109263917579215,80.4,0.0185279606834103,80.4,0.143134067109728,80.4,0.100546600253206
81.4,0.065556002081285,81.4,0.143834818465538,81.4,0.108921784603124,81.4,0.0185082088439465,81.4,0.143136075760248,81.4,0.100640067926047
82.4,0.0655937691378275,82.4,0.14384017863337,82.4,0.108234842749502,82.4,0.0184594204388322,82.4,0.143012640118107,82.4,0.100714850354235
83.4,0.0656214187538215,83.4,0.143813295586573,83.4,0.107343894825496,83.4,0.0183941926189797,83.4,0.142820558661607,83.4,0.100770110632802
84.4,0.0656760389213532,84.4,0.143760880194933,84.4,0.106431320428589,84.4,0.0183296392797303,84.4,0.142632076605111,84.4,0.100813601524296
85.4,0.0657940266691388,85.4,0.143691235110375,85.4,0.105688715632332,85.4,0.0182825537172516,85.4,0.142515118117152,85.4,0.100860419094406
86.4,0.0660102799728214,86.4,0.143617067895106,86.4,0.105276090167824,86.4,0.0182670667061239,86.4,0.142528779630787,86.4,0.100927274505364
87.4,0.0663422644646836,87.4,0.143550576211323,87.4,0.105296291335808,87.4,0.0182912294590286,87.4,0.142701707478432,87.4,0.101029039989382
88.4,0.06679359767189,88.4,0.14350250348466,88.4,0.105771551824571,88.4,0.0183530464743112,88.4,0.143026871252092,88.4,0.101172800791398
89.4,0.0673492039398952,89.4,0.143481057183937,89.4,0.106646773651712,89.4,0.0184434260898909,89.4,0.143465576968067,89.4,0.101356700918146
90.4,0.0679763159217938,90.4,0.143490749258343,90.4,0.10779456440565,90.4,0.0185456988767954,90.4,0.143951692751455,90.4,0.101568409634327
91.4,0.0686292793446302,91.4,0.143531152481751,91.4,0.109049588667733,91.4,0.0186401724361219,91.4,0.14440879523601,91.4,0.101787224863479
92.4,0.0692510190049475,92.4,0.143597313953987,92.4,0.110227135632408,92.4,0.0187080235966453,92.4,0.144761693851803,92.4,0.101988867812904
93.4,0.0697827869109161,93.4,0.143682159821669,93.4,0.111166065046645,93.4,0.0187356115665739,93.4,0.144959164868986,93.4,0.102149540441979
94.4,0.0701651776850178,94.4,0.143778704835865,94.4,0.111756137324927,94.4,0.0187161965481463,94.4,0.14497573669155,94.4,0.102252230325672
95.4,0.0703507750372339,95.4,0.143878612364882,95.4,0.111948619203212,95.4,0.0186525875678445,95.4,0.144825634170219,95.4,0.102289655868847
96.4,0.0703099068254546,96.4,0.143975426462,96.4,0.111762277209851,96.4,0.01855559442692,96.4,0.144552179964035,96.4,0.102264399479859
97.4,0.0700317615158789,97.4,0.144062592182483,97.4,0.111277312776107,97.4,0.0184411742418717,97.4,0.144219601558311,97.4,0.102189740830625
98.4,0.069530853710295,98.4,0.144134813745536,98.4,0.110611900479431,98.4,0.0183276251378636,98.4,0.143895413235304,98.4,0.102083203533129
99.4,0.0688498187330152,99.4,0.144186961511941,99.4,0.109900249738903,99.4,0.0182317369681954,99.4,0.143637618282933,99.4,0.101965901781577
100.4,0.0680515528598822,100.4,0.144213489714022,100.4,0.109261556000224,100.4,0.0181653913448761,100.4,0.143479750205983,100.4,0.101854418887555
101.4,0.0672159207447938,101.4,0.144209171718477,101.4,0.108784309764233,101.4,0.0181340017002907,101.4,0.143427014887967,101.4,0.101760608686041
102.4,0.0664313331774687,102.4,0.144169530860669,102.4,0.108513389905485,102.4,0.0181370250683976,102.4,0.143459572469584,102.4,0.101687770638347
103.4,0.0657830164425454,103.4,0.144093990097268,103.4,0.108443775858386,103.4,0.0181692908730931,103.4,0.143542442771041,103.4,0.101633785974321
104.4,0.0653378233099815,104.4,0.14398426020714,104.4,0.108533931393558,104.4,0.0182212480248989,104.4,0.143628843819521,104.4,0.101591504296001
105.4,0.0651424174892129,105.4,0.143849175985614,105.4,0.108716769763104,105.4,0.0182842590259568,105.4,0.143684199342726,105.4,0.101553935422718
106.4,0.0652055178202568,106.4,0.143702530380853,106.4,0.108919721224163,106.4,0.0183509291738277,106.4,0.1436887682747,106.4,0.101514179896193
107.4,0.0655015404066138,107.4,0.143561744448759,107.4,0.109079395001992,107.4,0.0184164705053548,107.4,0.143642447973276,107.4,0.101470132937984
108.4,0.0659695247535042,108.4,0.143445648863656,108.4,0.109150323277779,108.4,0.0184786007694842,108.4,0.143560102148882,108.4,0.101421498974552
109.4,0.0665238791087699,109.4,0.143371160903258,109.4,0.109115020894711,109.4,0.0185375738064312,109.4,0.143471197880065,109.4,0.101371380125576
110.4,0.0670666415716846,110.4,0.143350474156141,110.4,0.108980535193384,110.4,0.0185928549769899,110.4,0.143400639625796,110.4,0.10132290385949
111.4,0.067505605074359,111.4,0.143387828045797,111.4,0.108775488208658,111.4,0.01864393299109,111.4,0.143368311466654,111.4,0.101278034367278
112.4,0.067767261941297,112.4,0.143477452279296,112.4,0.108536279863362,112.4,0.0186881600755728,112.4,0.143378138745559,112.4,0.101236824074078
113.4,0.0678121675942617,113.4,0.143606259485646,113.4,0.108300558853925,113.4,0.0187210922245938,113.4,0.143417908273321,113.4,0.101197878210562
114.4,0.0676364522576554,114.4,0.143754471910031,114.4,0.108104950478811,114.4,0.018737325102591,114.4,0.143464232063127,114.4,0.101159035241613
115.4,0.0672753051879454,115.4,0.143899536442218,115.4,0.107973601750852,115.4,0.0187313141499371,115.4,0.143489851322026,115.4,0.101119914948747
116.4,0.0667963133924206,116.4,0.144020382451485,116.4,0.107920070742177,116.4,0.0186994491779917,116.4,0.14347375963753,116.4,0.101084175983911
117.4,0.0662832363128848,117.4,0.144101082465715,117.4,0.107956341358305,117.4,0.0186417199648548,117.4,0.143407902993589,117.4,0.101057051432942
118.4,0.0658206404342497,118.4,0.144133305573904,118.4,0.108081710125359,118.4,0.0185611279802709,118.4,0.143295437320325,118.4,0.101048088894528
119.4,0.0654829522964498,119.4,0.14411850912615,119.4,0.108301434011047,119.4,0.0184661128158447,119.4,0.143162435314221,119.4,0.101067376149623
120.4,0.0653177911534362,120.4,0.144066747773086,120.4,0.108612799768406,120.4,0.0183677517259755,120.4,0.14304199345287,120.4,0.101122410261455
121.4,0.065346881001173,121.4,0.14399478207808,121.4,0.109016370686912,121.4,0.0182798332185161,121.4,0.142974988931181,121.4,0.101216264180225
122.4,0.0655556161466879,122.4,0.14392245513218,122.4,0.109504884834362,122.4,0.0182148407762318,122.4,0.142994636555992,122.4,0.101345059202824
123.4,0.0659049884451353,123.4,0.143870216181625,123.4,0.110060041695249,123.4,0.0181842162733077,123.4,0.143127221432954,123.4,0.101497658566369
124.4,0.0663341649212466,124.4,0.143852445652667,124.4,0.110651656202912,124.4,0.0181927853646918,124.4,0.14337177682166,124.4,0.101656275331582
125.4,0.0667742348900898,125.4,0.143876437329795,125.4,0.111234277672722,125.4,0.0182402906756432,125.4,0.143710770668279,125.4,0.101800926508018
126.4,0.0671598821846204,126.4,0.143940261556486,126.4,0.11175134326687,126.4,0.0183199045639374,126.4,0.144108189362314,126.4,0.101912081081422
127.4,0.0674334389597951,127.4,0.144034356130249,127.4,0.112139571267781,127.4,0.0184191597960986,127.4,0.144516058406152,127.4,0.101975831806355
128.4,0.0675613234248365,128.4,0.144141973954902,128.4,0.112341509401276,128.4,0.018522347091128,128.4,0.144882377086293,128.4,0.101985915220048
129.4,0.0675333039266223,129.4,0.144243257300804,129.4,0.112318931189445,129.4,0.018612701689174,129.4,0.145159159102105,129.4,0.101946359608526
130.4,0.0673665044954235,130.4,0.144320162410694,130.4,0.112063163176194,130.4,0.0186750493619067,130.4,0.145313925186794,130.4,0.101869607902342
131.4,0.0671026405492221,131.4,0.144359081829518,131.4,0.111599054860421,131.4,0.0186991505678033,131.4,0.145332699370446,131.4,0.101772795879365
132.4,0.0667987556390791,132.4,0.144353315190583,132.4,0.110982663440527,132.4,0.0186810784559767,132.4,0.14522491633682,132.4,0.101675932577264
133.4,0.0665186343142655,133.4,0.144305985555234,133.4,0.110300313960736,133.4,0.0186242367556872,133.4,0.14502433334287,133.4,0.101596466277738
134.4,0.0663186155840891,134.4,0.144227213841215,134.4,0.109648147518043,134.4,0.018538602603048,134.4,0.144778307321871,134.4,0.101545202378263
135.4,0.0662390927066231,135.4,0.144134986621376,135.4,0.109116355509127,135.4,0.0184390300724234,135.4,0.144545848214371,135.4,0.101527485338467
136.4,0.0662950507716293,136.4,0.144049111201723,136.4,0.108778826997095,136.4,0.0183435241871114,136.4,0.144387934995784,136.4,0.101540974129382
137.4,0.066469527621873,137.4,0.143988162931004,137.4,0.108675294633674,137.4,0.0182677589452322,137.4,0.144352343302936,137.4,0.10157903041572
138.4,0.0667248296578245,138.4,0.143966293119402,138.4,0.108814737923978,138.4,0.0182247829094071,138.4,0.14447114438514,138.4,0.10163373224128
