(R) Hippocampal formation slice 1 time (s),(R) Hippocampal formation slice 1 amplitude,(R) Hypothalamus slice 1 time (s),(R) Hypothalamus slice 1 amplitude,(R) IsocortexUD slice 1 time (s),(R) IsocortexUD slice 1 amplitude,(R) Pallidum slice 1 time (s),(R) Pallidum slice 1 amplitude,(R) Striatum slice 1 time (s),(R) Striatum slice 1 amplitude,(R) Thalamus slice 1 time (s),(R) Thalamus slice 1 amplitude
0.4,0.0323085061626748,0.4,0.159989562595155,0.4,0.0773488476346709,0.4,0.0212950602173881,0.4,0.165039135158479,0.4,0.133678026055146
1.4,0.0327051333836086,1.4,0.159068607669425,1.4,0.076284336675959,1.4,0.0212084234276489,1.4,0.164665491057705,1.4,0.131405026423074
2.4,0.0330487143012397,2.4,0.158265660603415,2.4,0.075340593551002,2.4,0.0211034715899863,2.4,0.164220265119771,2.4,0.129435822810846
3.4,0.0333165972218761,3.4,0.157628485378396,3.4,0.0745886883812948,3.4,0.0209868688953201,3.4,0.163753303441764,3.4,0.127880082823308
4.4,0.0334977067394065,4.4,0.157183883499102,4.4,0.074069916471633,4.4,0.0208694482616466,4.4,0.16332466356432,4.4,0.126781496840596
5.4,0.0335935024817856,5.4,0.156936810280196,5.4,0.0737936909208491,5.4,0.0207651709095666,5.4,0.162991447470208,5.4,0.126117036102351
6.4,0.0336161889058573,6.4,0.156873140490138,6.4,0.0737383481692443,6.4,0.0206872803041154,6.4,0.162793676949413,6.4,0.125811433420379
7.4,0.0335861072006133,7.4,0.156963622553834,7.4,0.0738588987313427,7.4,0.0206462862302963,7.4,0.162746944886938,7.4,0.12576122134285
8.4,0.0335268713642138,8.4,0.157169773289254,8.4,0.0740964043734475,8.4,0.0206474227928331,8.4,0.162842071037517,8.4,0.125857852226165
9.4,0.0334612747467353,9.4,0.157450449809955,9.4,0.0743877238115973,9.4,0.0206892011493316,9.4,0.163038139631777,9.4,0.126008105488483
10.4,0.0334065774822185,10.4,0.157763982997291,10.4,0.0746760094191539,10.4,0.0207632217261144,10.4,0.16327961279572,10.4,0.126145478010875
11.4,0.0333734986143085,11.4,0.158074538937625,11.4,0.0749142385809167,11.4,0.0208562283197098,11.4,0.163498643801218,11.4,0.126233940265577
12.4,0.0333645879740441,12.4,0.158351642001859,12.4,0.0750750060793646,12.4,0.0209530446261753,12.4,0.163640769847858,12.4,0.126267954242296
13.4,0.0333758081738863,13.4,0.158573721626038,13.4,0.0751467393583317,13.4,0.0210387888812596,13.4,0.163674058598402,13.4,0.126263534941439
14.4,0.0333971646885787,14.4,0.158721021949551,14.4,0.075128008125059,14.4,0.0211015539916392,14.4,0.163586646961089,14.4,0.126233298828881
15.4,0.0334178415436516,15.4,0.158784058618425,15.4,0.075032409455323,15.4,0.0211350762471605,15.4,0.163403208459239,15.4,0.126195192379304
16.4,0.033427397775515,16.4,0.158760707790452,16.4,0.0748805582565386,16.4,0.0211389700442084,16.4,0.163171901643474,16.4,0.126164211482626
17.4,0.0334191450509183,17.4,0.158655463116067,17.4,0.0746961935811664,17.4,0.0211177692684908,17.4,0.162955192009051,17.4,0.126142513720065
18.4,0.0333899718975985,18.4,0.158481824658038,18.4,0.0745050857950066,18.4,0.0210799199398683,18.4,0.162812522454044,18.4,0.126127453767878
19.4,0.0333424509251565,19.4,0.158261038786976,19.4,0.0743316530387858,19.4,0.0210350514810291,19.4,0.16278685535115,19.4,0.126118661931391
20.4,0.0332829439849181,20.4,0.158019937814939,20.4,0.0741964748185761,20.4,0.0209919893202473,20.4,0.162897896272799,20.4,0.126112133462539
21.4,0.0332200349710747,21.4,0.157787265815154,21.4,0.074114351271484,21.4,0.0209568764295402,21.4,0.163124663599251,21.4,0.126104396684319
22.4,0.033161952470392,22.4,0.157590353467832,22.4,0.0740902517909256,22.4,0.0209311384971343,22.4,0.163418331208988,22.4,0.12608988456956
23.4,0.0331157448135337,23.4,0.157450918496126,23.4,0.0741217199094305,23.4,0.0209132468474088,23.4,0.163710160337525,23.4,0.126061515600078
24.4,0.0330842096949477,24.4,0.157380010705742,24.4,0.074195313200714,24.4,0.0208979357111042,24.4,0.163922025237221,24.4,0.126008259840531
25.4,0.0330665458793003,25.4,0.157373077528887,25.4,0.074290272798218,25.4,0.0208796202741567,25.4,0.163984115455898,25.4,0.125910548901623
26.4,0.0330588444591891,26.4,0.157416550283799,26.4,0.0743833108747867,26.4,0.020853250281699,26.4,0.163857248975944,26.4,0.125754706261197
27.4,0.0330540703917678,27.4,0.1574876791176,27.4,0.0744526906849727,27.4,0.0208162084229133,27.4,0.163538449563068,27.4,0.125535157134071
28.4,0.0330456984463347,28.4,0.157560862932715,28.4,0.0744828117417132,28.4,0.0207699380295551,28.4,0.163066550088743,28.4,0.125258439308551
29.4,0.0330278229923024,29.4,0.157616539048774,29.4,0.074469925143901,29.4,0.0207196341288853,29.4,0.16251724557749,29.4,0.12495613564212
30.4,0.0329992051423282,30.4,0.157643193515956,30.4,0.074421285773255,30.4,0.0206728382276489,30.4,0.161987902792687,30.4,0.124672724905161
31.4,0.0329616948763613,31.4,0.157644130772655,31.4,0.0743560101722872,31.4,0.0206379485523507,31.4,0.16157721413607,31.4,0.124468664157178
32.4,0.0329208138964521,32.4,0.157634814785738,32.4,0.0743010471909528,32.4,0.0206224231508721,32.4,0.161368627725064,32.4,0.12440723816828
33.4,0.0328856395152897,33.4,0.157639910862424,33.4,0.0742828458214183,33.4,0.0206305003123857,33.4,0.161409449612688,33.4,0.124539785949099
34.4,0.032865078082441,34.4,0.157684389519306,34.4,0.0743217743217463,34.4,0.0206625047266366,34.4,0.161699582624282,34.4,0.124890191228498
35.4,0.0328669555829619,35.4,0.157786526184444,35.4,0.074426832791245,35.4,0.0207132740589559,35.4,0.162193575930586,35.4,0.125446044326923
36.4,0.0328946478667173,36.4,0.15795170093461,36.4,0.0745917464722099,36.4,0.0207743114035587,36.4,0.162809189049686,36.4,0.126157477618612
37.4,0.0329460932313534,37.4,0.158169442959977,37.4,0.0747960854354869,37.4,0.0208355013136935,37.4,0.163439389678543,37.4,0.126941491563622
38.4,0.0330145857571345,38.4,0.158415308326623,38.4,0.0750104144164853,38.4,0.0208869960882073,38.4,0.163981094979408,38.4,0.127698702306791
39.4,0.0330887067746839,39.4,0.158655974745448,39.4,0.0752019463553181,39.4,0.0209219756930674,39.4,0.164352144546828,39.4,0.128330790804508
40.4,0.0331564137779974,40.4,0.158856801285235,40.4,0.075341297946537,40.4,0.0209380925888087,40.4,0.164506914653359,40.4,0.128760667472613
41.4,0.0332061428665666,41.4,0.158991198126899,41.4,0.0754098798440369,41.4,0.0209379644644708,41.4,0.164446872977297,41.4,0.128948992218162
42.4,0.0332302628312712,42.4,0.159048182671885,42.4,0.0754027515991732,42.4,0.0209286257102272,42.4,0.164218136949821,42.4,0.128900435069463
43.4,0.0332280621855737,43.4,0.159032718943239,43.4,0.0753294273119371,43.4,0.0209204621424452,43.4,0.163902759598675,43.4,0.128666645212637
44.4,0.0332036067946763,44.4,0.158966939388674,44.4,0.0752105355693502,44.4,0.0209234204966297,44.4,0.163598111972066,44.4,0.128329138002841
45.4,0.0331674912060858,45.4,0.158880024710121,45.4,0.0750725474473612,45.4,0.0209459931872742,45.4,0.16339454321829,45.4,0.127980727283381
46.4,0.0331329930036932,46.4,0.158801980843888,46.4,0.0749402423874252,46.4,0.0209918127876513,46.4,0.163357389424412,46.4,0.127704362991076
47.4,0.0331131620357164,47.4,0.158754439162727,47.4,0.074834190918973,47.4,0.021059067829441,47.4,0.163518612041858,47.4,0.127561702338427
48.4,0.0331172822229069,48.4,0.1587446280116,48.4,0.0747646533646269,48.4,0.0211405435795951,48.4,0.163864596596087,48.4,0.127573694885845
49.4,0.0331494254630057,49.4,0.158763099873378,49.4,0.0747330701899519,49.4,0.0212246876778466,49.4,0.164343211106729,49.4,0.127720685174115
50.4,0.033206203835616,50.4,0.158787183684103,50.4,0.0747303031314494,50.4,0.0212982001015156,50.4,0.164873152175694,50.4,0.127950048260608
51.4,0.0332770198855315,51.4,0.158788051319152,51.4,0.07474197072165,51.4,0.0213480847799848,51.4,0.165361822550191,51.4,0.12818850577964
52.4,0.033347684488418,52.4,0.158739963760563,52.4,0.0747538202114721,52.4,0.0213653969425775,52.4,0.165720414936094,52.4,0.12836242489732
53.4,0.0334017823735143,53.4,0.158625437250615,53.4,0.0747489139413192,53.4,0.021345578280191,53.4,0.165876835597454,53.4,0.128409842854053
54.4,0.0334249209026939,54.4,0.158445579630108,54.4,0.074717824326842,54.4,0.0212903536224367,54.4,0.165795600822742,54.4,0.12829937555508
55.4,0.0334090503283331,55.4,0.158221521664884,55.4,0.0746596119296785,55.4,0.0212071948380205,55.4,0.165479218562849,55.4,0.128035177173796
56.4,0.0333509208387721,56.4,0.157977192005311,56.4,0.0745629643809774,56.4,0.0211063441322812,56.4,0.164958093200362,56.4,0.12763983320859
57.4,0.0332571943846569,57.4,0.157753687687916,57.4,0.074434628172358,57.4,0.0210014035000285,57.4,0.164304208189806,57.4,0.127172300528758
58.4,0.0331406285546705,58.4,0.157588440339004,58.4,0.0742845822535464,58.4,0.0209050793864747,58.4,0.163605433563294,58.4,0.12669668769936
59.4,0.033018762692837,59.4,0.15751135324863,59.4,0.0741301054329673,59.4,0.0208288366617348,59.4,0.162959079578533,59.4,0.12628005238371
60.4,0.0329101379533857,60.4,0.157539782869791,60.4,0.073992237899029,60.4,0.0207795976370474,60.4,0.162452146391439,60.4,0.125972406839347
61.4,0.0328312795456607,61.4,0.157674191388351,61.4,0.0738971182332379,61.4,0.0207609094955546,61.4,0.162155195676759,61.4,0.125809231251949
62.4,0.0327938228413519,62.4,0.157900058721346,62.4,0.0738686557962469,62.4,0.0207717862655755,62.4,0.162105128815617,62.4,0.125800852585321
63.4,0.0328021326950985,63.4,0.158188523522617,63.4,0.0739241684629616,63.4,0.0208076377215305,63.4,0.162306980684898,63.4,0.125935296943789
64.4,0.0328523347990091,64.4,0.158500123200696,64.4,0.0740666986562964,64.4,0.0208607155335421,64.4,0.162724261009137,64.4,0.126180793730654
65.4,0.0329346652711618,65.4,0.158790228152074,65.4,0.0742808113095385,65.4,0.0209218803841222,65.4,0.16328592566172,65.4,0.12649057225001
66.4,0.0330332938938316,66.4,0.159014654540999,66.4,0.0745303674699141,66.4,0.0209815219369838,66.4,0.163902716906132,66.4,0.126812159519871
67.4,0.0331312079234943,67.4,0.159136131569439,67.4,0.0747621411092554,67.4,0.0210306645103361,67.4,0.164473173737716,67.4,0.127090921060354
68.4,0.0332126053088496,68.4,0.159128705361875,68.4,0.0749173966407176,68.4,0.021062364202913,68.4,0.164908105881574,68.4,0.127282215887211
69.4,0.0332666087039615,69.4,0.158987045888489,69.4,0.0749440848291885,69.4,0.0210729583507955,69.4,0.165145642553433,69.4,0.12735904771396
70.4,0.0332893766845686,70.4,0.158726323261889,70.4,0.0748121904294619,70.4,0.021062612079293,70.4,0.165161465016574,70.4,0.12731291148944
71.4,0.03328570762898,71.4,0.158389028420586,71.4,0.074530118437213,71.4,0.0210361285210621,71.4,0.164980478877582,71.4,0.127169243257683
72.4,0.0332652037336723,72.4,0.15803499593707,72.4,0.0741410805321435,72.4,0.0210015176411085,72.4,0.164668274219246,72.4,0.126970320267989
73.4,0.0332435676702797,73.4,0.157737653431656,73.4,0.0737274530188572,73.4,0.0209695224854139,73.4,0.164321505966699,73.4,0.126777986001792
74.4,0.0332370251451566,74.4,0.157574029974122,74.4,0.0733939321546018,74.4,0.0209520183063446,74.4,0.164047409186347,74.4,0.126663021456934
75.4,0.0332602295581618,75.4,0.157608585663515,75.4,0.0732477995997414,75.4,0.0209588081413462,75.4,0.163951046058987,75.4,0.126695242005048
76.4,0.0333213859295341,76.4,0.15787948438112,76.4,0.0733722370515078,76.4,0.0209960487764416,76.4,0.164104663391382,76.4,0.126919766968543
77.4,0.0334208191338925,77.4,0.158387302213412,77.4,0.0738060524387656,77.4,0.0210641838159261,77.4,0.16453248798338,77.4,0.1273514032706
78.4,0.0335507336635325,78.4,0.159092782094741,78.4,0.0745300700681668,78.4,0.0211578427938969,78.4,0.165211601149027,78.4,0.127968992228804
79.4,0.0336949609330928,79.4,0.159919383144637,79.4,0.0754668631638969,79.4,0.0212659800007996,79.4,0.166069454607507,79.4,0.128712078177108
80.4,0.0338335346053862,80.4,0.160763466827229,80.4,0.0764907688381765,80.4,0.0213737232052237,80.4,0.166995270709289,80.4,0.129491885232336
81.4,0.0339449175342937,81.4,0.161514617227988,81.4,0.077454349266199,81.4,0.0214658731572619,81.4,0.167867429246972,81.4,0.130205644633912
82.4,0.0340110758657414,82.4,0.162071882748786,82.4,0.0782152813023364,82.4,0.0215292613175173,82.4,0.168568958756475,82.4,0.130754882179944
83.4,0.0340215487712304,83.4,0.162360620535075,83.4,0.0786628316132485,83.4,0.0215550901711708,83.4,0.169006400417435,83.4,0.13105770137673
84.4,0.0339758007742278,84.4,0.162347357111459,84.4,0.078741728200739,84.4,0.0215419204423026,84.4,0.169130341632364,84.4,0.131067683952643
85.4,0.0338826494911223,85.4,0.162041878394607,85.4,0.0784595664330684,85.4,0.0214941278949943,85.4,0.16893520755329,85.4,0.130780393871363
86.4,0.0337600636925461,86.4,0.161491579622155,86.4,0.0778824942535115,86.4,0.0214209478174099,86.4,0.168458554857689,86.4,0.130226425945913
87.4,0.0336304321207475,87.4,0.160774029985784,87.4,0.0771182175992768,87.4,0.0213350439906548,87.4,0.167772068274361,87.4,0.1294731117669
88.4,0.0335171542745264,88.4,0.159977461088537,88.4,0.0762930513599356,88.4,0.0212490386840378,88.4,0.166964366092448,88.4,0.128606663539107
89.4,0.0334389891312653,89.4,0.159188845503323,89.4,0.0755252966769751,89.4,0.0211730238581313,89.4,0.166122991438013,89.4,0.127717129108392
90.4,0.0334068413902116,90.4,0.15848083216508,90.4,0.0749038628241176,90.4,0.0211129910631634,90.4,0.16532858035122,90.4,0.126888124558292
91.4,0.0334221019253325,91.4,0.157902930499569,91.4,0.0744751840207833,91.4,0.0210702802053704,91.4,0.164641678517422,91.4,0.126186405855919
92.4,0.0334756390700991,92.4,0.15748100657941,92.4,0.0742405044837953,92.4,0.0210426758662909,92.4,0.164094218244318,92.4,0.125652658153807
93.4,0.0335513312691102,93.4,0.157221146312827,93.4,0.0741645464926704,93.4,0.0210252206168868,93.4,0.163696618491857,93.4,0.12530322179125
94.4,0.033628599156149,94.4,0.157114368687519,94.4,0.0741874112420064,94.4,0.0210122140824817,94.4,0.163442849327598,94.4,0.125133290034054
95.4,0.0336871544838452,95.4,0.157141978733374,95.4,0.0742448564534772,95.4,0.0209990351835824,95.4,0.163309394671711,95.4,0.125117504417597
96.4,0.0337116626011654,96.4,0.157280894959121,96.4,0.0742823163029369,96.4,0.0209828368226282,96.4,0.163269026993317,96.4,0.125221077736811
97.4,0.0336933677457493,97.4,0.15750668744597,97.4,0.0742665124852875,97.4,0.0209625064177643,97.4,0.163295491773071,97.4,0.125403605479229
98.4,0.0336329307989743,98.4,0.157791993103869,98.4,0.0741884861601853,98.4,0.0209384280427662,98.4,0.163363544676906,98.4,0.125622163026071
99.4,0.0335384098184164,99.4,0.158104789593603,99.4,0.0740617174747274,99.4,0.0209113365305045,99.4,0.163450972530597,99.4,0.125838705486012
100.4,0.0334233574128172,100.4,0.158412708379334,100.4,0.0739132843958324,100.4,0.0208814909608984,100.4,0.16354351183777,100.4,0.126022232216789
101.4,0.0333049258240491,101.4,0.158678649585216,101.4,0.0737751294180185,101.4,0.0208487601090163,101.4,0.163629236263142,101.4,0.126148514805826
102.4,0.0331987794943286,102.4,0.158866373267209,102.4,0.0736737294433261,102.4,0.0208119223559926,102.4,0.163695699490571,102.4,0.126204559034762
103.4,0.0331173633144427,103.4,0.158946369357399,103.4,0.0736252340674052,103.4,0.0207700582744986,103.4,0.163736023975194,103.4,0.126189697883724
104.4,0.0330686048140076,104.4,0.158898253691633,104.4,0.0736288404030166,104.4,0.0207227371493165,104.4,0.16373594640448,104.4,0.126105554299195
105.4,0.0330547108781875,105.4,0.15871720046603,105.4,0.0736721106569991,105.4,0.0206716559723636,105.4,0.163681522937555,105.4,0.125963985341128
106.4,0.0330737264486539,106.4,0.158416156383602,106.4,0.0737333697830525,106.4,0.0206207504613072,106.4,0.163566516638962,106.4,0.125785524690153
107.4,0.0331199191258698,107.4,0.15802449890647,107.4,0.0737879723995826,107.4,0.0205757056139467,107.4,0.163380066309427,107.4,0.125586416681659
108.4,0.0331866226637081,108.4,0.157586312097105,108.4,0.073816096916316,108.4,0.0205439754143802,108.4,0.163117464329035,108.4,0.125386655057754
109.4,0.0332652819952235,109.4,0.157148060283988,109.4,0.0738001961393251,109.4,0.0205311668581449,109.4,0.162779754881668,109.4,0.125193158219786
110.4,0.0333489566230577,110.4,0.156760224498196,110.4,0.0737390204223614,110.4,0.0205418904625143,110.4,0.162382206014279,110.4,0.125020298280699
111.4,0.0334309704285837,111.4,0.156460382872784,111.4,0.0736380278413708,111.4,0.0205768548113458,111.4,0.161941618334877,111.4,0.124867654483949
112.4,0.0335062526789778,112.4,0.156276000871807,112.4,0.073513033120991,112.4,0.0206327069481365,112.4,0.161493234790431,112.4,0.124741860419583
113.4,0.0335699647597907,113.4,0.15621880856973,113.4,0.0733908278231383,113.4,0.0207020989111441,113.4,0.161073287896315,113.4,0.124650719797761
114.4,0.0336178957950634,114.4,0.156276289322545,114.4,0.0732889086544952,114.4,0.0207750153278739,114.4,0.160714212779983,114.4,0.124595612503322
115.4,0.0336469930694417,115.4,0.156424139438505,115.4,0.0732276532766843,115.4,0.0208399622548325,115.4,0.16044989527344,115.4,0.124588653099916
116.4,0.0336555635832322,116.4,0.156628471586958,116.4,0.0732195300838335,116.4,0.020886079546294,116.4,0.160295900682217,116.4,0.124636471942677
117.4,0.033644086225547,117.4,0.156850198899096,117.4,0.0732707179479482,117.4,0.0209054807711972,117.4,0.160258667651825,117.4,0.12474810571507
118.4,0.033613110856788,118.4,0.157052105872335,118.4,0.073374026769107,118.4,0.0208932015103561,118.4,0.160321062785567,118.4,0.124918367995341
119.4,0.0335654026348604,119.4,0.157203057620141,119.4,0.0735136039375127,119.4,0.0208489078305663,119.4,0.160453902584794,119.4,0.12513778484059
120.4,0.0335047156393674,120.4,0.157281314262416,120.4,0.0736654293567756,120.4,0.020775968075931,120.4,0.160614175897293,120.4,0.125380542477206
121.4,0.0334370264162939,121.4,0.15728826474191,121.4,0.0738119560183709,121.4,0.0206823535244929,121.4,0.16077039879168,121.4,0.125621922333237
122.4,0.0333649928138604,122.4,0.157215337735759,122.4,0.0739133353978222,122.4,0.0205765578510095,122.4,0.160883508909997,122.4,0.125819918454277
123.4,0.0332956654036176,123.4,0.157084946702176,123.4,0.073958813055612,123.4,0.0204701814412284,123.4,0.160941036332249,123.4,0.125949221026447
124.4,0.0332358938907318,124.4,0.156926839652833,124.4,0.0739456328847826,124.4,0.0203756532236339,124.4,0.160951449715675,124.4,0.125995700221984
125.4,0.0331933090061455,125.4,0.156782667737407,125.4,0.0738927563661574,125.4,0.0203055011305573,125.4,0.160946690620273,125.4,0.125969572372387
126.4,0.0331771649263302,126.4,0.156699780604377,126.4,0.0738377759051496,126.4,0.0202714091753943,126.4,0.160975913696476,126.4,0.12590654213574
127.4,0.0331967292158183,127.4,0.156725279621857,127.4,0.0738334762460418,127.4,0.0202835844918204,127.4,0.161101517798302,127.4,0.125864835300072
128.4,0.0332601577947176,128.4,0.156897819552537,128.4,0.0739364276735143,128.4,0.0203481512663445,128.4,0.161379909508068,128.4,0.12591436001615
129.4,0.0333748720530856,129.4,0.15725126032164,129.4,0.0742090058110868,129.4,0.0204677587438751,129.4,0.161854389976373,129.4,0.12612717377781
130.4,0.0335360268551036,130.4,0.157759478913137,130.4,0.0746426938461365,130.4,0.0206339201106222,130.4,0.162522066862467,130.4,0.126531584156184
131.4,0.0337332032995991,131.4,0.158381833772392,131.4,0.0752152783532881,131.4,0.0208317134354986,131.4,0.163354169234654,131.4,0.127127288578116
132.4,0.0339492091704765,132.4,0.159053383641164,132.4,0.0758673816463344,132.4,0.0210406787862876,132.4,0.164287666714287,132.4,0.127868852849865
133.4,0.0341598004096508,133.4,0.15969350723893,133.4,0.0765126039193753,133.4,0.0212359910806367,133.4,0.165241795361797,133.4,0.128674541979807
134.4,0.0343387431739742,134.4,0.160223546643186,134.4,0.0770579961945026,134.4,0.0213929401699439,134.4,0.166129406456667,134.4,0.129435681865817
135.4,0.0344633640492483,135.4,0.16059071082549,135.4,0.0774324225227069,135.4,0.0214924784951916,135.4,0.166881072088968,135.4,0.130048280041923
136.4,0.0345142573999038,136.4,0.160764406645073,136.4,0.0775860036976047,136.4,0.0215209977166905,136.4,0.167443226039511,136.4,0.130421570819717
137.4,0.0344858962267013,137.4,0.160766557375373,137.4,0.0775297602800549,137.4,0.0214782450349621,137.4,0.167806093249194,137.4,0.130516860974556
